// Stopping powers form https://physics.nist.gov/PhysRefData/Star/Text/PSTAR.html
// SP: MeV cm2 / g
// Range: g/cm2
// Kinetic Energy / SP Electronic / SP Nuclear / SP  Total / Range CSDA / Range Projected / Range Detour Factor = Projected / CSDA 
1.000E-03 4.110E+01 3.564E+00 4.466E+01 3.644E-05 6.397E-06 0.1755 
1.500E-03 5.034E+01 3.313E+00 5.365E+01 4.654E-05 9.249E-06 0.1987 
2.000E-03 5.812E+01 3.108E+00 6.123E+01 5.525E-05 1.206E-05 0.2182 
2.500E-03 6.498E+01 2.937E+00 6.792E+01 6.300E-05 1.481E-05 0.2350 
3.000E-03 7.119E+01 2.792E+00 7.398E+01 7.004E-05 1.751E-05 0.2500 
4.000E-03 8.220E+01 2.556E+00 8.475E+01 8.264E-05 2.281E-05 0.2760 
5.000E-03 9.190E+01 2.369E+00 9.427E+01 9.381E-05 2.797E-05 0.2981 
6.000E-03 1.007E+02 2.217E+00 1.029E+02 1.040E-04 3.300E-05 0.3175 
7.000E-03 1.087E+02 2.089E+00 1.108E+02 1.133E-04 3.793E-05 0.3347 
8.000E-03 1.162E+02 1.979E+00 1.182E+02 1.220E-04 4.275E-05 0.3503 
9.000E-03 1.233E+02 1.884E+00 1.252E+02 1.303E-04 4.748E-05 0.3645 
1.000E-02 1.300E+02 1.799E+00 1.318E+02 1.380E-04 5.212E-05 0.3776 
1.250E-02 1.434E+02 1.626E+00 1.450E+02 1.561E-04 6.343E-05 0.4064 
1.500E-02 1.552E+02 1.489E+00 1.567E+02 1.727E-04 7.442E-05 0.4310 
1.750E-02 1.658E+02 1.379E+00 1.671E+02 1.881E-04 8.510E-05 0.4524 
2.000E-02 1.754E+02 1.286E+00 1.767E+02 2.026E-04 9.552E-05 0.4714 
2.250E-02 1.842E+02 1.208E+00 1.854E+02 2.165E-04 1.057E-04 0.4883 
2.500E-02 1.923E+02 1.140E+00 1.934E+02 2.297E-04 1.156E-04 0.5036 
2.750E-02 1.997E+02 1.081E+00 2.008E+02 2.423E-04 1.254E-04 0.5175 
3.000E-02 2.066E+02 1.029E+00 2.077E+02 2.546E-04 1.350E-04 0.5302 
3.500E-02 2.190E+02 9.410E-01 2.199E+02 2.780E-04 1.537E-04 0.5529 
4.000E-02 2.296E+02 8.688E-01 2.305E+02 3.001E-04 1.719E-04 0.5726 
4.500E-02 2.389E+02 8.086E-01 2.397E+02 3.214E-04 1.896E-04 0.5899 
5.000E-02 2.468E+02 7.573E-01 2.475E+02 3.419E-04 2.070E-04 0.6054 
5.500E-02 2.535E+02 7.130E-01 2.542E+02 3.618E-04 2.241E-04 0.6193 
6.000E-02 2.592E+02 6.743E-01 2.599E+02 3.813E-04 2.410E-04 0.6320 
6.500E-02 2.640E+02 6.402E-01 2.647E+02 4.003E-04 2.577E-04 0.6436 
7.000E-02 2.680E+02 6.097E-01 2.686E+02 4.191E-04 2.742E-04 0.6543 
7.500E-02 2.711E+02 5.825E-01 2.717E+02 4.376E-04 2.907E-04 0.6643 
8.000E-02 2.736E+02 5.579E-01 2.741E+02 4.559E-04 3.071E-04 0.6735 
8.500E-02 2.754E+02 5.355E-01 2.759E+02 4.741E-04 3.234E-04 0.6822 
9.000E-02 2.767E+02 5.151E-01 2.772E+02 4.922E-04 3.398E-04 0.6904 
9.500E-02 2.774E+02 4.963E-01 2.779E+02 5.102E-04 3.562E-04 0.6981 
1.000E-01 2.777E+02 4.791E-01 2.781E+02 5.282E-04 3.726E-04 0.7054 
1.250E-01 2.737E+02 4.098E-01 2.741E+02 6.185E-04 4.558E-04 0.7370 
1.500E-01 2.642E+02 3.596E-01 2.646E+02 7.112E-04 5.423E-04 0.7625 
1.750E-01 2.523E+02 3.214E-01 2.526E+02 8.079E-04 6.332E-04 0.7837 
2.000E-01 2.397E+02 2.912E-01 2.400E+02 9.094E-04 7.292E-04 0.8018 
2.250E-01 2.276E+02 2.666E-01 2.278E+02 1.016E-03 8.307E-04 0.8174 
2.500E-01 2.162E+02 2.463E-01 2.165E+02 1.129E-03 9.381E-04 0.8309 
2.750E-01 2.059E+02 2.291E-01 2.061E+02 1.247E-03 1.051E-03 0.8428 
3.000E-01 1.966E+02 2.143E-01 1.968E+02 1.371E-03 1.170E-03 0.8532 
3.500E-01 1.807E+02 1.903E-01 1.809E+02 1.637E-03 1.425E-03 0.8706 
4.000E-01 1.678E+02 1.715E-01 1.680E+02 1.924E-03 1.701E-03 0.8843 
4.500E-01 1.573E+02 1.563E-01 1.575E+02 2.232E-03 1.998E-03 0.8954 
5.000E-01 1.485E+02 1.438E-01 1.487E+02 2.559E-03 2.314E-03 0.9044 
5.500E-01 1.411E+02 1.333E-01 1.412E+02 2.904E-03 2.648E-03 0.9119 
6.000E-01 1.347E+02 1.243E-01 1.348E+02 3.266E-03 2.999E-03 0.9182 
6.500E-01 1.291E+02 1.166E-01 1.292E+02 3.645E-03 3.367E-03 0.9235 
7.000E-01 1.241E+02 1.098E-01 1.242E+02 4.040E-03 3.750E-03 0.9281 
7.500E-01 1.197E+02 1.039E-01 1.198E+02 4.450E-03 4.148E-03 0.9320 
8.000E-01 1.157E+02 9.857E-02 1.158E+02 4.875E-03 4.560E-03 0.9355 
8.500E-01 1.119E+02 9.382E-02 1.120E+02 5.314E-03 4.987E-03 0.9385 
9.000E-01 1.084E+02 8.954E-02 1.085E+02 5.767E-03 5.428E-03 0.9412 
9.500E-01 1.051E+02 8.567E-02 1.051E+02 6.236E-03 5.884E-03 0.9436 
1.000E+00 1.019E+02 8.214E-02 1.020E+02 6.718E-03 6.354E-03 0.9457 
1.250E+00 8.879E+01 6.831E-02 8.886E+01 9.352E-03 8.921E-03 0.9539 
1.500E+00 7.899E+01 5.869E-02 7.905E+01 1.234E-02 1.184E-02 0.9593 
1.750E+00 7.148E+01 5.157E-02 7.153E+01 1.567E-02 1.509E-02 0.9631 
2.000E+00 6.554E+01 4.609E-02 6.559E+01 1.933E-02 1.867E-02 0.9659 
2.250E+00 6.075E+01 4.172E-02 6.079E+01 2.329E-02 2.254E-02 0.9680 
2.500E+00 5.680E+01 3.815E-02 5.684E+01 2.755E-02 2.671E-02 0.9697 
2.750E+00 5.349E+01 3.518E-02 5.352E+01 3.208E-02 3.115E-02 0.9711 
3.000E+00 5.066E+01 3.266E-02 5.070E+01 3.688E-02 3.586E-02 0.9723 
3.500E+00 4.606E+01 2.862E-02 4.609E+01 4.724E-02 4.602E-02 0.9741 
4.000E+00 4.233E+01 2.551E-02 4.236E+01 5.857E-02 5.713E-02 0.9754 
4.500E+00 3.926E+01 2.305E-02 3.928E+01 7.084E-02 6.918E-02 0.9765 
5.000E+00 3.666E+01 2.104E-02 3.668E+01 8.402E-02 8.213E-02 0.9774 
5.500E+00 3.444E+01 1.937E-02 3.446E+01 9.810E-02 9.595E-02 0.9781 
6.000E+00 3.250E+01 1.795E-02 3.252E+01 1.130E-01 1.106E-01 0.9788 
6.500E+00 3.082E+01 1.674E-02 3.084E+01 1.288E-01 1.262E-01 0.9793 
7.000E+00 2.932E+01 1.569E-02 2.934E+01 1.455E-01 1.425E-01 0.9798 
7.500E+00 2.798E+01 1.477E-02 2.800E+01 1.629E-01 1.597E-01 0.9802 
8.000E+00 2.677E+01 1.396E-02 2.678E+01 1.812E-01 1.777E-01 0.9806 
8.500E+00 2.567E+01 1.323E-02 2.569E+01 2.002E-01 1.964E-01 0.9809 
9.000E+00 2.467E+01 1.258E-02 2.468E+01 2.201E-01 2.160E-01 0.9813 
9.500E+00 2.376E+01 1.200E-02 2.377E+01 2.408E-01 2.363E-01 0.9815 
1.000E+01 2.293E+01 1.147E-02 2.294E+01 2.622E-01 2.574E-01 0.9818 
1.250E+01 1.958E+01 9.413E-03 1.959E+01 3.805E-01 3.740E-01 0.9829 
1.500E+01 1.719E+01 8.005E-03 1.719E+01 5.171E-01 5.086E-01 0.9836 
1.750E+01 1.537E+01 6.977E-03 1.538E+01 6.711E-01 6.605E-01 0.9842 
2.000E+01 1.394E+01 6.192E-03 1.395E+01 8.420E-01 8.291E-01 0.9847 
2.500E+01 1.183E+01 5.069E-03 1.184E+01 1.233E+00 1.215E+00 0.9854 
2.750E+01 1.103E+01 4.652E-03 1.103E+01 1.452E+00 1.431E+00 0.9857 
3.000E+01 1.034E+01 4.301E-03 1.035E+01 1.686E+00 1.662E+00 0.9860 
3.500E+01 9.223E+00 3.742E-03 9.227E+00 2.198E+00 2.169E+00 0.9864 
4.000E+01 8.352E+00 3.316E-03 8.355E+00 2.769E+00 2.732E+00 0.9868 
4.500E+01 7.653E+00 2.980E-03 7.656E+00 3.395E+00 3.351E+00 0.9871 
5.000E+01 7.078E+00 2.707E-03 7.081E+00 4.074E+00 4.023E+00 0.9873 
5.500E+01 6.597E+00 2.482E-03 6.600E+00 4.806E+00 4.747E+00 0.9875 
6.000E+01 6.188E+00 2.293E-03 6.191E+00 5.589E+00 5.521E+00 0.9877 
6.500E+01 5.836E+00 2.131E-03 5.838E+00 6.421E+00 6.344E+00 0.9879 
7.000E+01 5.529E+00 1.991E-03 5.531E+00 7.302E+00 7.215E+00 0.9881 
7.500E+01 5.259E+00 1.869E-03 5.261E+00 8.229E+00 8.132E+00 0.9882 
8.000E+01 5.020E+00 1.762E-03 5.021E+00 9.202E+00 9.095E+00 0.9883 
8.500E+01 4.806E+00 1.667E-03 4.808E+00 1.022E+01 1.010E+01 0.9885 
9.000E+01 4.614E+00 1.581E-03 4.615E+00 1.128E+01 1.115E+01 0.9886 
9.500E+01 4.440E+00 1.505E-03 4.442E+00 1.239E+01 1.225E+01 0.9887 
1.000E+02 4.283E+00 1.435E-03 4.284E+00 1.353E+01 1.338E+01 0.9888 
1.250E+02 3.670E+00 1.168E-03 3.671E+00 1.986E+01 1.965E+01 0.9892 
1.500E+02 3.248E+00 9.869E-04 3.249E+00 2.712E+01 2.684E+01 0.9896 
1.750E+02 2.940E+00 8.555E-04 2.941E+00 3.523E+01 3.487E+01 0.9899 
2.000E+02 2.705E+00 7.557E-04 2.706E+00 4.410E+01 4.367E+01 0.9902 
2.250E+02 2.521E+00 6.772E-04 2.521E+00 5.368E+01 5.317E+01 0.9904 
2.500E+02 2.371E+00 6.139E-04 2.372E+00 6.391E+01 6.331E+01 0.9906 
2.750E+02 2.249E+00 5.617E-04 2.249E+00 7.475E+01 7.406E+01 0.9908 
3.000E+02 2.146E+00 5.179E-04 2.146E+00 8.613E+01 8.536E+01 0.9910 
3.500E+02 1.984E+00 4.485E-04 1.984E+00 1.104E+02 1.094E+02 0.9913 
4.000E+02 1.863E+00 3.958E-04 1.863E+00 1.364E+02 1.353E+02 0.9916 
4.500E+02 1.769E+00 3.545E-04 1.769E+00 1.640E+02 1.627E+02 0.9919 
5.000E+02 1.695E+00 3.212E-04 1.695E+00 1.929E+02 1.914E+02 0.9921 
5.500E+02 1.635E+00 2.937E-04 1.636E+00 2.229E+02 2.212E+02 0.9923 
6.000E+02 1.586E+00 2.707E-04 1.587E+00 2.540E+02 2.521E+02 0.9925 
6.500E+02 1.546E+00 2.512E-04 1.546E+00 2.859E+02 2.838E+02 0.9927 
7.000E+02 1.511E+00 2.343E-04 1.512E+00 3.186E+02 3.164E+02 0.9929 
7.500E+02 1.483E+00 2.196E-04 1.483E+00 3.520E+02 3.496E+02 0.9930 
8.000E+02 1.458E+00 2.067E-04 1.458E+00 3.861E+02 3.834E+02 0.9932 
8.500E+02 1.437E+00 1.953E-04 1.437E+00 4.206E+02 4.178E+02 0.9933 
9.000E+02 1.419E+00 1.851E-04 1.419E+00 4.556E+02 4.526E+02 0.9934 
9.500E+02 1.403E+00 1.760E-04 1.403E+00 4.911E+02 4.879E+02 0.9936 
1.000E+03 1.389E+00 1.677E-04 1.389E+00 5.269E+02 5.236E+02 0.9937 
1.500E+03 1.319E+00 1.147E-04 1.319E+00 8.983E+02 8.934E+02 0.9946 
2.000E+03 1.303E+00 8.761E-05 1.303E+00 1.280E+03 1.274E+03 0.9953 
2.500E+03 1.305E+00 7.111E-05 1.305E+00 1.664E+03 1.657E+03 0.9957 
3.000E+03 1.315E+00 5.997E-05 1.315E+00 2.046E+03 2.038E+03 0.9961 
4.000E+03 1.340E+00 4.585E-05 1.340E+00 2.799E+03 2.790E+03 0.9966 
5.000E+03 1.366E+00 3.723E-05 1.366E+00 3.538E+03 3.528E+03 0.9970 
6.000E+03 1.391E+00 3.141E-05 1.391E+00 4.264E+03 4.252E+03 0.9973 
7.000E+03 1.414E+00 2.721E-05 1.414E+00 4.976E+03 4.964E+03 0.9975 
8.000E+03 1.435E+00 2.402E-05 1.435E+00 5.678E+03 5.665E+03 0.9977 
9.000E+03 1.454E+00 2.153E-05 1.454E+00 6.371E+03 6.357E+03 0.9979 
1.000E+04 1.471E+00 1.951E-05 1.471E+00 7.054E+03 7.040E+03 0.9980 
