// Stopping powers form https://physics.nist.gov/PhysRefData/Star/Text/PSTAR.html
// SP: MeV cm2 / g
// Range: g/cm2
// Kinetic Energy / SP Electronic / SP Nuclear / SP  Total / Range CSDA / Range Projected / Range Detour Factor = Projected / CSDA 
1.000E-03 1.849E+02 5.407E+01 2.390E+02 4.716E-06 2.489E-06 0.5279 
1.500E-03 2.265E+02 4.284E+01 2.693E+02 6.672E-06 3.777E-06 0.5661 
2.000E-03 2.615E+02 3.593E+01 2.975E+02 8.438E-06 5.031E-06 0.5962 
2.500E-03 2.924E+02 3.117E+01 3.236E+02 1.005E-05 6.236E-06 0.6206 
3.000E-03 3.203E+02 2.766E+01 3.480E+02 1.154E-05 7.394E-06 0.6409 
4.000E-03 3.699E+02 2.277E+01 3.926E+02 1.424E-05 9.584E-06 0.6731 
5.000E-03 4.135E+02 1.949E+01 4.330E+02 1.666E-05 1.163E-05 0.6978 
6.000E-03 4.530E+02 1.712E+01 4.701E+02 1.888E-05 1.355E-05 0.7176 
7.000E-03 4.893E+02 1.531E+01 5.046E+02 2.093E-05 1.536E-05 0.7339 
8.000E-03 5.230E+02 1.387E+01 5.369E+02 2.285E-05 1.708E-05 0.7477 
9.000E-03 5.548E+02 1.271E+01 5.675E+02 2.466E-05 1.873E-05 0.7595 
1.000E-02 5.848E+02 1.175E+01 5.965E+02 2.638E-05 2.031E-05 0.7698 
1.250E-02 6.439E+02 9.913E+00 6.538E+02 3.037E-05 2.402E-05 0.7908 
1.500E-02 6.953E+02 8.613E+00 7.039E+02 3.405E-05 2.749E-05 0.8072 
1.750E-02 7.408E+02 7.637E+00 7.484E+02 3.750E-05 3.076E-05 0.8205 
2.000E-02 7.814E+02 6.875E+00 7.883E+02 4.075E-05 3.388E-05 0.8314 
2.250E-02 8.179E+02 6.262E+00 8.242E+02 4.385E-05 3.687E-05 0.8408 
2.500E-02 8.509E+02 5.757E+00 8.566E+02 4.682E-05 3.974E-05 0.8488 
2.750E-02 8.806E+02 5.334E+00 8.860E+02 4.969E-05 4.253E-05 0.8558 
3.000E-02 9.075E+02 4.972E+00 9.125E+02 5.247E-05 4.523E-05 0.8621 
3.500E-02 9.537E+02 4.389E+00 9.580E+02 5.781E-05 5.045E-05 0.8726 
4.000E-02 9.909E+02 3.936E+00 9.949E+02 6.293E-05 5.547E-05 0.8814 
4.500E-02 1.021E+03 3.573E+00 1.024E+03 6.788E-05 6.033E-05 0.8887 
5.000E-02 1.044E+03 3.276E+00 1.047E+03 7.271E-05 6.508E-05 0.8951 
5.500E-02 1.061E+03 3.028E+00 1.064E+03 7.744E-05 6.975E-05 0.9007 
6.000E-02 1.073E+03 2.817E+00 1.076E+03 8.212E-05 7.436E-05 0.9056 
6.500E-02 1.081E+03 2.635E+00 1.083E+03 8.675E-05 7.894E-05 0.9100 
7.000E-02 1.084E+03 2.477E+00 1.087E+03 9.135E-05 8.350E-05 0.9140 
7.500E-02 1.085E+03 2.338E+00 1.087E+03 9.595E-05 8.805E-05 0.9177 
8.000E-02 1.083E+03 2.215E+00 1.085E+03 1.006E-04 9.261E-05 0.9210 
8.500E-02 1.078E+03 2.105E+00 1.080E+03 1.052E-04 9.719E-05 0.9241 
9.000E-02 1.072E+03 2.006E+00 1.074E+03 1.098E-04 1.018E-04 0.9270 
9.500E-02 1.064E+03 1.916E+00 1.065E+03 1.145E-04 1.064E-04 0.9296 
1.000E-01 1.054E+03 1.835E+00 1.056E+03 1.192E-04 1.111E-04 0.9321 
1.250E-01 9.941E+02 1.518E+00 9.956E+02 1.436E-04 1.353E-04 0.9426 
1.500E-01 9.278E+02 1.300E+00 9.291E+02 1.695E-04 1.612E-04 0.9506 
1.750E-01 8.650E+02 1.139E+00 8.661E+02 1.974E-04 1.889E-04 0.9569 
2.000E-01 8.089E+02 1.015E+00 8.099E+02 2.273E-04 2.187E-04 0.9620 
2.250E-01 7.601E+02 9.168E-01 7.610E+02 2.592E-04 2.504E-04 0.9662 
2.500E-01 7.179E+02 8.369E-01 7.187E+02 2.930E-04 2.841E-04 0.9697 
2.750E-01 6.814E+02 7.698E-01 6.822E+02 3.287E-04 3.197E-04 0.9727 
3.000E-01 6.497E+02 7.126E-01 6.504E+02 3.662E-04 3.571E-04 0.9752 
3.500E-01 5.912E+02 6.212E-01 5.919E+02 4.469E-04 4.375E-04 0.9791 
4.000E-01 5.410E+02 5.514E-01 5.415E+02 5.353E-04 5.257E-04 0.9821 
4.500E-01 4.992E+02 4.963E-01 4.997E+02 6.315E-04 6.217E-04 0.9845 
5.000E-01 4.649E+02 4.515E-01 4.653E+02 7.353E-04 7.252E-04 0.9863 
5.500E-01 4.363E+02 4.145E-01 4.367E+02 8.463E-04 8.359E-04 0.9878 
6.000E-01 4.114E+02 3.832E-01 4.118E+02 9.642E-04 9.537E-04 0.9890 
6.500E-01 3.898E+02 3.564E-01 3.901E+02 1.089E-03 1.078E-03 0.9900 
7.000E-01 3.706E+02 3.332E-01 3.709E+02 1.221E-03 1.209E-03 0.9909 
7.500E-01 3.534E+02 3.129E-01 3.538E+02 1.359E-03 1.347E-03 0.9916 
8.000E-01 3.381E+02 2.951E-01 3.384E+02 1.503E-03 1.491E-03 0.9922 
8.500E-01 3.242E+02 2.792E-01 3.244E+02 1.654E-03 1.642E-03 0.9928 
9.000E-01 3.114E+02 2.651E-01 3.117E+02 1.811E-03 1.799E-03 0.9932 
9.500E-01 2.998E+02 2.523E-01 3.000E+02 1.975E-03 1.962E-03 0.9936 
1.000E+00 2.891E+02 2.408E-01 2.893E+02 2.145E-03 2.132E-03 0.9940 
1.250E+00 2.464E+02 1.963E-01 2.466E+02 3.084E-03 3.070E-03 0.9953 
1.500E+00 2.159E+02 1.660E-01 2.160E+02 4.170E-03 4.153E-03 0.9960 
1.750E+00 1.927E+02 1.440E-01 1.929E+02 5.397E-03 5.378E-03 0.9966 
2.000E+00 1.744E+02 1.273E-01 1.746E+02 6.761E-03 6.741E-03 0.9969 
2.250E+00 1.596E+02 1.142E-01 1.598E+02 8.260E-03 8.237E-03 0.9972 
2.500E+00 1.474E+02 1.036E-01 1.475E+02 9.890E-03 9.865E-03 0.9974 
2.750E+00 1.371E+02 9.481E-02 1.372E+02 1.165E-02 1.162E-02 0.9976 
3.000E+00 1.282E+02 8.744E-02 1.283E+02 1.353E-02 1.350E-02 0.9977 
3.500E+00 1.138E+02 7.575E-02 1.139E+02 1.768E-02 1.764E-02 0.9979 
4.000E+00 1.025E+02 6.688E-02 1.026E+02 2.231E-02 2.227E-02 0.9981 
4.500E+00 9.344E+01 5.991E-02 9.350E+01 2.743E-02 2.738E-02 0.9982 
5.000E+00 8.597E+01 5.429E-02 8.602E+01 3.301E-02 3.295E-02 0.9983 
5.500E+00 7.969E+01 4.965E-02 7.974E+01 3.905E-02 3.898E-02 0.9983 
6.000E+00 7.435E+01 4.576E-02 7.439E+01 4.554E-02 4.547E-02 0.9984 
6.500E+00 6.973E+01 4.245E-02 6.977E+01 5.249E-02 5.241E-02 0.9984 
7.000E+00 6.570E+01 3.959E-02 6.574E+01 5.987E-02 5.978E-02 0.9985 
7.500E+00 6.215E+01 3.711E-02 6.218E+01 6.770E-02 6.760E-02 0.9985 
8.000E+00 5.899E+01 3.492E-02 5.903E+01 7.595E-02 7.584E-02 0.9985 
8.500E+00 5.617E+01 3.298E-02 5.621E+01 8.464E-02 8.451E-02 0.9985 
9.000E+00 5.363E+01 3.126E-02 5.366E+01 9.374E-02 9.361E-02 0.9986 
9.500E+00 5.133E+01 2.970E-02 5.136E+01 1.033E-01 1.031E-01 0.9986 
1.000E+01 4.923E+01 2.830E-02 4.926E+01 1.132E-01 1.131E-01 0.9986 
1.250E+01 4.104E+01 2.292E-02 4.107E+01 1.691E-01 1.688E-01 0.9987 
1.500E+01 3.536E+01 1.929E-02 3.538E+01 2.349E-01 2.346E-01 0.9987 
1.750E+01 3.116E+01 1.667E-02 3.118E+01 3.103E-01 3.099E-01 0.9988 
2.000E+01 2.793E+01 1.469E-02 2.795E+01 3.951E-01 3.947E-01 0.9988 
2.500E+01 2.327E+01 1.189E-02 2.328E+01 5.921E-01 5.914E-01 0.9988 
2.750E+01 2.152E+01 1.086E-02 2.153E+01 7.039E-01 7.031E-01 0.9989 
3.000E+01 2.005E+01 1.000E-02 2.006E+01 8.243E-01 8.233E-01 0.9989 
3.500E+01 1.768E+01 8.638E-03 1.769E+01 1.090E+00 1.089E+00 0.9989 
4.000E+01 1.587E+01 7.608E-03 1.588E+01 1.389E+00 1.388E+00 0.9989 
4.500E+01 1.443E+01 6.801E-03 1.444E+01 1.720E+00 1.718E+00 0.9989 
5.000E+01 1.326E+01 6.153E-03 1.327E+01 2.081E+00 2.079E+00 0.9990 
5.500E+01 1.229E+01 5.619E-03 1.230E+01 2.473E+00 2.471E+00 0.9990 
6.000E+01 1.148E+01 5.172E-03 1.148E+01 2.894E+00 2.891E+00 0.9990 
6.500E+01 1.078E+01 4.793E-03 1.078E+01 3.344E+00 3.340E+00 0.9990 
7.000E+01 1.017E+01 4.466E-03 1.017E+01 3.821E+00 3.818E+00 0.9990 
7.500E+01 9.639E+00 4.182E-03 9.643E+00 4.326E+00 4.322E+00 0.9990 
8.000E+01 9.171E+00 3.933E-03 9.175E+00 4.858E+00 4.854E+00 0.9990 
8.500E+01 8.755E+00 3.712E-03 8.759E+00 5.416E+00 5.411E+00 0.9990 
9.000E+01 8.382E+00 3.515E-03 8.386E+00 6.000E+00 5.994E+00 0.9990 
9.500E+01 8.047E+00 3.339E-03 8.050E+00 6.609E+00 6.602E+00 0.9991 
1.000E+02 7.743E+00 3.180E-03 7.746E+00 7.242E+00 7.235E+00 0.9991 
1.250E+02 6.572E+00 2.571E-03 6.575E+00 1.076E+01 1.075E+01 0.9991 
1.500E+02 5.776E+00 2.161E-03 5.778E+00 1.483E+01 1.482E+01 0.9991 
1.750E+02 5.198E+00 1.865E-03 5.200E+00 1.940E+01 1.938E+01 0.9991 
2.000E+02 4.761E+00 1.643E-03 4.762E+00 2.443E+01 2.441E+01 0.9992 
2.250E+02 4.418E+00 1.468E-03 4.419E+00 2.989E+01 2.986E+01 0.9992 
2.500E+02 4.142E+00 1.328E-03 4.143E+00 3.574E+01 3.571E+01 0.9992 
2.750E+02 3.915E+00 1.213E-03 3.916E+00 4.195E+01 4.191E+01 0.9992 
3.000E+02 3.726E+00 1.116E-03 3.727E+00 4.849E+01 4.846E+01 0.9992 
3.500E+02 3.429E+00 9.640E-04 3.430E+00 6.250E+01 6.246E+01 0.9993 
4.000E+02 3.207E+00 8.490E-04 3.208E+00 7.760E+01 7.754E+01 0.9993 
4.500E+02 3.036E+00 7.590E-04 3.036E+00 9.363E+01 9.357E+01 0.9993 
5.000E+02 2.900E+00 6.867E-04 2.900E+00 1.105E+02 1.104E+02 0.9993 
5.500E+02 2.790E+00 6.272E-04 2.791E+00 1.281E+02 1.280E+02 0.9993 
6.000E+02 2.700E+00 5.775E-04 2.701E+00 1.463E+02 1.462E+02 0.9993 
6.500E+02 2.625E+00 5.352E-04 2.626E+00 1.651E+02 1.650E+02 0.9994 
7.000E+02 2.560E+00 4.989E-04 2.561E+00 1.844E+02 1.843E+02 0.9994 
7.500E+02 2.505E+00 4.673E-04 2.505E+00 2.041E+02 2.040E+02 0.9994 
8.000E+02 2.457E+00 4.395E-04 2.457E+00 2.243E+02 2.241E+02 0.9994 
8.500E+02 2.415E+00 4.150E-04 2.416E+00 2.448E+02 2.447E+02 0.9994 
9.000E+02 2.379E+00 3.931E-04 2.380E+00 2.657E+02 2.655E+02 0.9994 
9.500E+02 2.347E+00 3.735E-04 2.348E+00 2.868E+02 2.867E+02 0.9994 
1.000E+03 2.319E+00 3.558E-04 2.320E+00 3.083E+02 3.081E+02 0.9994 
1.500E+03 2.162E+00 2.425E-04 2.162E+00 5.329E+02 5.326E+02 0.9995 
2.000E+03 2.105E+00 1.848E-04 2.105E+00 7.678E+02 7.675E+02 0.9996 
2.500E+03 2.084E+00 1.498E-04 2.084E+00 1.007E+03 1.006E+03 0.9996 
3.000E+03 2.079E+00 1.262E-04 2.079E+00 1.247E+03 1.247E+03 0.9997 
4.000E+03 2.089E+00 9.631E-05 2.089E+00 1.727E+03 1.727E+03 0.9997 
5.000E+03 2.108E+00 7.812E-05 2.108E+00 2.204E+03 2.203E+03 0.9997 
6.000E+03 2.129E+00 6.584E-05 2.129E+00 2.676E+03 2.675E+03 0.9998 
7.000E+03 2.149E+00 5.699E-05 2.149E+00 3.143E+03 3.143E+03 0.9998 
8.000E+03 2.169E+00 5.028E-05 2.169E+00 3.606E+03 3.606E+03 0.9998 
9.000E+03 2.188E+00 4.503E-05 2.188E+00 4.065E+03 4.065E+03 0.9998 
1.000E+04 2.205E+00 4.080E-05 2.205E+00 4.521E+03 4.520E+03 0.9998 
