// Stopping powers form https://physics.nist.gov/PhysRefData/Star/Text/PSTAR.html
// SP: MeV cm2 / g
// Range: g/cm2
// Kinetic Energy / SP Electronic / SP Nuclear / SP  Total / Range CSDA / Range Projected / Range Detour Factor = Projected / CSDA 
1.000E-03 8.327E+01 1.844E+01 1.017E+02 1.336E-05 3.765E-06 0.2818 
1.500E-03 1.020E+02 1.580E+01 1.178E+02 1.789E-05 5.781E-06 0.3231 
2.000E-03 1.178E+02 1.394E+01 1.317E+02 2.190E-05 7.819E-06 0.3570 
2.500E-03 1.317E+02 1.253E+01 1.442E+02 2.553E-05 9.838E-06 0.3854 
3.000E-03 1.442E+02 1.143E+01 1.557E+02 2.886E-05 1.183E-05 0.4099 
4.000E-03 1.650E+02 9.789E+00 1.747E+02 3.491E-05 1.573E-05 0.4505 
5.000E-03 1.834E+02 8.615E+00 1.920E+02 4.036E-05 1.950E-05 0.4832 
6.000E-03 2.001E+02 7.725E+00 2.078E+02 4.537E-05 2.315E-05 0.5103 
7.000E-03 2.153E+02 7.023E+00 2.224E+02 5.001E-05 2.668E-05 0.5334 
8.000E-03 2.292E+02 6.453E+00 2.357E+02 5.438E-05 3.009E-05 0.5533 
9.000E-03 2.420E+02 5.979E+00 2.480E+02 5.852E-05 3.341E-05 0.5709 
1.000E-02 2.540E+02 5.578E+00 2.595E+02 6.246E-05 3.663E-05 0.5865 
1.250E-02 2.787E+02 4.797E+00 2.835E+02 7.166E-05 4.436E-05 0.6191 
1.500E-02 3.000E+02 4.227E+00 3.043E+02 8.016E-05 5.172E-05 0.6452 
1.750E-02 3.190E+02 3.790E+00 3.228E+02 8.813E-05 5.876E-05 0.6667 
2.000E-02 3.362E+02 3.442E+00 3.397E+02 9.568E-05 6.553E-05 0.6849 
2.250E-02 3.519E+02 3.159E+00 3.550E+02 1.029E-04 7.207E-05 0.7006 
2.500E-02 3.661E+02 2.923E+00 3.691E+02 1.098E-04 7.841E-05 0.7142 
2.750E-02 3.792E+02 2.722E+00 3.819E+02 1.164E-04 8.457E-05 0.7263 
3.000E-02 3.912E+02 2.550E+00 3.938E+02 1.229E-04 9.057E-05 0.7371 
3.500E-02 4.131E+02 2.269E+00 4.154E+02 1.352E-04 1.022E-04 0.7555 
4.000E-02 4.327E+02 2.048E+00 4.347E+02 1.470E-04 1.133E-04 0.7708 
4.500E-02 4.500E+02 1.870E+00 4.519E+02 1.583E-04 1.241E-04 0.7838 
5.000E-02 4.651E+02 1.723E+00 4.668E+02 1.692E-04 1.345E-04 0.7950 
5.500E-02 4.780E+02 1.598E+00 4.796E+02 1.797E-04 1.446E-04 0.8049 
6.000E-02 4.891E+02 1.492E+00 4.906E+02 1.900E-04 1.546E-04 0.8136 
6.500E-02 4.985E+02 1.401E+00 4.999E+02 2.001E-04 1.644E-04 0.8214 
7.000E-02 5.064E+02 1.320E+00 5.078E+02 2.100E-04 1.740E-04 0.8285 
7.500E-02 5.130E+02 1.250E+00 5.143E+02 2.198E-04 1.835E-04 0.8349 
8.000E-02 5.184E+02 1.186E+00 5.196E+02 2.295E-04 1.929E-04 0.8408 
8.500E-02 5.227E+02 1.130E+00 5.239E+02 2.391E-04 2.023E-04 0.8462 
9.000E-02 5.260E+02 1.079E+00 5.271E+02 2.486E-04 2.116E-04 0.8512 
9.500E-02 5.284E+02 1.033E+00 5.295E+02 2.580E-04 2.209E-04 0.8559 
1.000E-01 5.301E+02 9.907E-01 5.310E+02 2.675E-04 2.301E-04 0.8603 
1.250E-01 5.286E+02 8.257E-01 5.295E+02 3.145E-04 2.763E-04 0.8786 
1.500E-01 5.167E+02 7.106E-01 5.174E+02 3.622E-04 3.234E-04 0.8927 
1.750E-01 4.994E+02 6.254E-01 5.000E+02 4.113E-04 3.719E-04 0.9041 
2.000E-01 4.796E+02 5.595E-01 4.801E+02 4.624E-04 4.223E-04 0.9135 
2.250E-01 4.604E+02 5.070E-01 4.609E+02 5.155E-04 4.750E-04 0.9214 
2.500E-01 4.423E+02 4.641E-01 4.428E+02 5.709E-04 5.299E-04 0.9282 
2.750E-01 4.254E+02 4.282E-01 4.258E+02 6.284E-04 5.870E-04 0.9340 
3.000E-01 4.096E+02 3.979E-01 4.100E+02 6.883E-04 6.464E-04 0.9391 
3.500E-01 3.812E+02 3.491E-01 3.815E+02 8.148E-04 7.720E-04 0.9475 
4.000E-01 3.564E+02 3.116E-01 3.567E+02 9.504E-04 9.067E-04 0.9541 
4.500E-01 3.346E+02 2.818E-01 3.349E+02 1.095E-03 1.051E-03 0.9594 
5.000E-01 3.154E+02 2.574E-01 3.156E+02 1.249E-03 1.204E-03 0.9637 
5.500E-01 2.983E+02 2.372E-01 2.985E+02 1.412E-03 1.366E-03 0.9673 
6.000E-01 2.831E+02 2.200E-01 2.833E+02 1.584E-03 1.537E-03 0.9703 
6.500E-01 2.696E+02 2.053E-01 2.698E+02 1.765E-03 1.717E-03 0.9729 
7.000E-01 2.574E+02 1.925E-01 2.576E+02 1.955E-03 1.906E-03 0.9751 
7.500E-01 2.465E+02 1.813E-01 2.467E+02 2.153E-03 2.103E-03 0.9770 
8.000E-01 2.365E+02 1.714E-01 2.367E+02 2.360E-03 2.309E-03 0.9786 
8.500E-01 2.274E+02 1.625E-01 2.276E+02 2.575E-03 2.524E-03 0.9800 
9.000E-01 2.191E+02 1.546E-01 2.193E+02 2.799E-03 2.747E-03 0.9813 
9.500E-01 2.115E+02 1.474E-01 2.116E+02 3.031E-03 2.978E-03 0.9824 
1.000E+00 2.044E+02 1.409E-01 2.046E+02 3.272E-03 3.218E-03 0.9834 
1.250E+00 1.759E+02 1.157E-01 1.760E+02 4.594E-03 4.534E-03 0.9871 
1.500E+00 1.552E+02 9.838E-02 1.553E+02 6.109E-03 6.045E-03 0.9895 
1.750E+00 1.393E+02 8.574E-02 1.393E+02 7.812E-03 7.742E-03 0.9910 
2.000E+00 1.267E+02 7.608E-02 1.267E+02 9.696E-03 9.620E-03 0.9922 
2.250E+00 1.164E+02 6.844E-02 1.164E+02 1.176E-02 1.167E-02 0.9930 
2.500E+00 1.078E+02 6.225E-02 1.079E+02 1.399E-02 1.390E-02 0.9936 
2.750E+00 1.006E+02 5.712E-02 1.006E+02 1.639E-02 1.629E-02 0.9941 
3.000E+00 9.433E+01 5.279E-02 9.438E+01 1.896E-02 1.885E-02 0.9945 
3.500E+00 8.413E+01 4.590E-02 8.418E+01 2.458E-02 2.446E-02 0.9952 
4.000E+00 7.611E+01 4.065E-02 7.615E+01 3.083E-02 3.069E-02 0.9956 
4.500E+00 6.962E+01 3.650E-02 6.965E+01 3.770E-02 3.755E-02 0.9959 
5.000E+00 6.424E+01 3.315E-02 6.428E+01 4.518E-02 4.501E-02 0.9962 
5.500E+00 5.971E+01 3.037E-02 5.974E+01 5.326E-02 5.306E-02 0.9964 
6.000E+00 5.584E+01 2.804E-02 5.587E+01 6.192E-02 6.170E-02 0.9965 
6.500E+00 5.249E+01 2.605E-02 5.251E+01 7.115E-02 7.092E-02 0.9967 
7.000E+00 4.955E+01 2.433E-02 4.957E+01 8.096E-02 8.070E-02 0.9968 
7.500E+00 4.695E+01 2.282E-02 4.697E+01 9.132E-02 9.104E-02 0.9969 
8.000E+00 4.464E+01 2.150E-02 4.466E+01 1.022E-01 1.019E-01 0.9969 
8.500E+00 4.256E+01 2.033E-02 4.258E+01 1.137E-01 1.134E-01 0.9970 
9.000E+00 4.069E+01 1.928E-02 4.071E+01 1.257E-01 1.254E-01 0.9971 
9.500E+00 3.899E+01 1.834E-02 3.900E+01 1.383E-01 1.379E-01 0.9971 
1.000E+01 3.744E+01 1.748E-02 3.745E+01 1.514E-01 1.509E-01 0.9972 
1.250E+01 3.135E+01 1.420E-02 3.136E+01 2.246E-01 2.240E-01 0.9974 
1.500E+01 2.710E+01 1.198E-02 2.711E+01 3.106E-01 3.099E-01 0.9975 
1.750E+01 2.395E+01 1.037E-02 2.396E+01 4.089E-01 4.080E-01 0.9976 
2.000E+01 2.151E+01 9.149E-03 2.152E+01 5.192E-01 5.180E-01 0.9977 
2.500E+01 1.798E+01 7.418E-03 1.799E+01 7.746E-01 7.728E-01 0.9978 
2.750E+01 1.665E+01 6.781E-03 1.666E+01 9.191E-01 9.171E-01 0.9978 
3.000E+01 1.553E+01 6.247E-03 1.554E+01 1.075E+00 1.072E+00 0.9979 
3.500E+01 1.373E+01 5.401E-03 1.373E+01 1.418E+00 1.415E+00 0.9979 
4.000E+01 1.234E+01 4.761E-03 1.234E+01 1.802E+00 1.799E+00 0.9980 
4.500E+01 1.124E+01 4.259E-03 1.124E+01 2.227E+00 2.223E+00 0.9980 
5.000E+01 1.034E+01 3.855E-03 1.034E+01 2.692E+00 2.686E+00 0.9980 
5.500E+01 9.592E+00 3.522E-03 9.596E+00 3.194E+00 3.188E+00 0.9981 
6.000E+01 8.961E+00 3.244E-03 8.965E+00 3.734E+00 3.726E+00 0.9981 
6.500E+01 8.421E+00 3.007E-03 8.424E+00 4.309E+00 4.301E+00 0.9981 
7.000E+01 7.953E+00 2.803E-03 7.956E+00 4.920E+00 4.911E+00 0.9982 
7.500E+01 7.543E+00 2.625E-03 7.546E+00 5.566E+00 5.556E+00 0.9982 
8.000E+01 7.181E+00 2.469E-03 7.183E+00 6.245E+00 6.234E+00 0.9982 
8.500E+01 6.859E+00 2.331E-03 6.861E+00 6.958E+00 6.945E+00 0.9982 
9.000E+01 6.570E+00 2.208E-03 6.572E+00 7.703E+00 7.689E+00 0.9982 
9.500E+01 6.310E+00 2.097E-03 6.312E+00 8.479E+00 8.464E+00 0.9982 
1.000E+02 6.075E+00 1.998E-03 6.077E+00 9.287E+00 9.270E+00 0.9983 
1.250E+02 5.165E+00 1.616E-03 5.167E+00 1.377E+01 1.375E+01 0.9983 
1.500E+02 4.545E+00 1.359E-03 4.547E+00 1.894E+01 1.891E+01 0.9984 
1.750E+02 4.096E+00 1.174E-03 4.097E+00 2.475E+01 2.471E+01 0.9984 
2.000E+02 3.754E+00 1.034E-03 3.755E+00 3.113E+01 3.108E+01 0.9985 
2.250E+02 3.486E+00 9.244E-04 3.487E+00 3.805E+01 3.799E+01 0.9985 
2.500E+02 3.271E+00 8.363E-04 3.272E+00 4.546E+01 4.539E+01 0.9985 
2.750E+02 3.094E+00 7.639E-04 3.095E+00 5.332E+01 5.324E+01 0.9985 
3.000E+02 2.946E+00 7.033E-04 2.947E+00 6.160E+01 6.151E+01 0.9986 
3.500E+02 2.714E+00 6.075E-04 2.714E+00 7.931E+01 7.920E+01 0.9986 
4.000E+02 2.540E+00 5.351E-04 2.541E+00 9.838E+01 9.825E+01 0.9987 
4.500E+02 2.406E+00 4.785E-04 2.406E+00 1.186E+02 1.185E+02 0.9987 
5.000E+02 2.300E+00 4.330E-04 2.300E+00 1.399E+02 1.397E+02 0.9987 
5.500E+02 2.214E+00 3.956E-04 2.214E+00 1.621E+02 1.619E+02 0.9988 
6.000E+02 2.144E+00 3.643E-04 2.144E+00 1.850E+02 1.848E+02 0.9988 
6.500E+02 2.085E+00 3.377E-04 2.085E+00 2.087E+02 2.084E+02 0.9988 
7.000E+02 2.036E+00 3.148E-04 2.036E+00 2.329E+02 2.327E+02 0.9989 
7.500E+02 1.994E+00 2.949E-04 1.994E+00 2.578E+02 2.575E+02 0.9989 
8.000E+02 1.957E+00 2.774E-04 1.957E+00 2.831E+02 2.828E+02 0.9989 
8.500E+02 1.925E+00 2.619E-04 1.925E+00 3.088E+02 3.085E+02 0.9989 
9.000E+02 1.897E+00 2.481E-04 1.898E+00 3.350E+02 3.346E+02 0.9990 
9.500E+02 1.873E+00 2.358E-04 1.873E+00 3.615E+02 3.611E+02 0.9990 
1.000E+03 1.852E+00 2.246E-04 1.852E+00 3.884E+02 3.880E+02 0.9990 
1.500E+03 1.733E+00 1.532E-04 1.733E+00 6.691E+02 6.685E+02 0.9991 
2.000E+03 1.692E+00 1.168E-04 1.692E+00 9.616E+02 9.609E+02 0.9992 
2.500E+03 1.679E+00 9.472E-05 1.679E+00 1.259E+03 1.258E+03 0.9993 
3.000E+03 1.677E+00 7.981E-05 1.677E+00 1.557E+03 1.556E+03 0.9994 
4.000E+03 1.689E+00 6.094E-05 1.689E+00 2.151E+03 2.150E+03 0.9995 
5.000E+03 1.706E+00 4.945E-05 1.706E+00 2.740E+03 2.739E+03 0.9995 
6.000E+03 1.725E+00 4.169E-05 1.725E+00 3.323E+03 3.322E+03 0.9996 
7.000E+03 1.743E+00 3.609E-05 1.743E+00 3.900E+03 3.898E+03 0.9996 
8.000E+03 1.760E+00 3.185E-05 1.760E+00 4.471E+03 4.469E+03 0.9996 
9.000E+03 1.776E+00 2.853E-05 1.776E+00 5.036E+03 5.035E+03 0.9997 
1.000E+04 1.791E+00 2.585E-05 1.791E+00 5.597E+03 5.595E+03 0.9997 
