// Stopping powers form https://physics.nist.gov/PhysRefData/Star/Text/PSTAR.html
// SP: MeV cm2 / g
// Range: g/cm2
// Kinetic Energy / SP Electronic / SP Nuclear / SP  Total / Range CSDA / Range Projected / Range Detour Factor = Projected / CSDA 
1.000E-03 1.425E+02 3.362E+01 1.761E+02 6.887E-06 2.974E-06 0.4319 
1.500E-03 1.745E+02 2.727E+01 2.017E+02 9.518E-06 4.479E-06 0.4706 
2.000E-03 2.015E+02 2.325E+01 2.247E+02 1.186E-05 5.952E-06 0.5017 
2.500E-03 2.252E+02 2.042E+01 2.457E+02 1.399E-05 7.378E-06 0.5273 
3.000E-03 2.467E+02 1.830E+01 2.650E+02 1.595E-05 8.756E-06 0.5490 
4.000E-03 2.831E+02 1.529E+01 2.983E+02 1.950E-05 1.139E-05 0.5842 
5.000E-03 3.153E+02 1.323E+01 3.285E+02 2.269E-05 1.388E-05 0.6119 
6.000E-03 3.444E+02 1.171E+01 3.561E+02 2.561E-05 1.625E-05 0.6345 
7.000E-03 3.711E+02 1.055E+01 3.816E+02 2.832E-05 1.851E-05 0.6534 
8.000E-03 3.955E+02 9.617E+00 4.052E+02 3.086E-05 2.067E-05 0.6696 
9.000E-03 4.182E+02 8.854E+00 4.271E+02 3.327E-05 2.274E-05 0.6837 
1.000E-02 4.396E+02 8.216E+00 4.478E+02 3.555E-05 2.475E-05 0.6961 
1.250E-02 4.823E+02 6.994E+00 4.893E+02 4.088E-05 2.950E-05 0.7217 
1.500E-02 5.190E+02 6.116E+00 5.251E+02 4.581E-05 3.399E-05 0.7419 
1.750E-02 5.513E+02 5.452E+00 5.567E+02 5.043E-05 3.825E-05 0.7585 
2.000E-02 5.801E+02 4.929E+00 5.851E+02 5.481E-05 4.233E-05 0.7724 
2.250E-02 6.060E+02 4.506E+00 6.105E+02 5.899E-05 4.627E-05 0.7843 
2.500E-02 6.292E+02 4.156E+00 6.334E+02 6.301E-05 5.007E-05 0.7947 
2.750E-02 6.501E+02 3.861E+00 6.540E+02 6.689E-05 5.376E-05 0.8037 
3.000E-02 6.690E+02 3.608E+00 6.726E+02 7.066E-05 5.736E-05 0.8118 
3.500E-02 7.019E+02 3.198E+00 7.051E+02 7.791E-05 6.433E-05 0.8257 
4.000E-02 7.295E+02 2.877E+00 7.323E+02 8.487E-05 7.105E-05 0.8372 
4.500E-02 7.522E+02 2.620E+00 7.548E+02 9.159E-05 7.757E-05 0.8469 
5.000E-02 7.704E+02 2.408E+00 7.728E+02 9.813E-05 8.393E-05 0.8553 
5.500E-02 7.845E+02 2.230E+00 7.868E+02 1.045E-04 9.019E-05 0.8627 
6.000E-02 7.951E+02 2.079E+00 7.972E+02 1.109E-04 9.636E-05 0.8693 
6.500E-02 8.026E+02 1.948E+00 8.045E+02 1.171E-04 1.025E-04 0.8751 
7.000E-02 8.074E+02 1.834E+00 8.093E+02 1.233E-04 1.086E-04 0.8805 
7.500E-02 8.100E+02 1.733E+00 8.117E+02 1.295E-04 1.146E-04 0.8853 
8.000E-02 8.105E+02 1.644E+00 8.121E+02 1.356E-04 1.207E-04 0.8898 
8.500E-02 8.093E+02 1.564E+00 8.109E+02 1.418E-04 1.267E-04 0.8939 
9.000E-02 8.066E+02 1.492E+00 8.081E+02 1.480E-04 1.328E-04 0.8977 
9.500E-02 8.027E+02 1.427E+00 8.041E+02 1.542E-04 1.389E-04 0.9013 
1.000E-01 7.977E+02 1.368E+00 7.991E+02 1.604E-04 1.451E-04 0.9046 
1.250E-01 7.625E+02 1.136E+00 7.636E+02 1.923E-04 1.767E-04 0.9186 
1.500E-01 7.195E+02 9.753E-01 7.205E+02 2.260E-04 2.100E-04 0.9293 
1.750E-01 6.762E+02 8.566E-01 6.771E+02 2.618E-04 2.455E-04 0.9378 
2.000E-01 6.358E+02 7.651E-01 6.366E+02 2.999E-04 2.833E-04 0.9447 
2.250E-01 5.993E+02 6.923E-01 5.999E+02 3.404E-04 3.235E-04 0.9505 
2.500E-01 5.667E+02 6.329E-01 5.673E+02 3.833E-04 3.661E-04 0.9553 
2.750E-01 5.379E+02 5.831E-01 5.385E+02 4.285E-04 4.111E-04 0.9594 
3.000E-01 5.123E+02 5.407E-01 5.129E+02 4.761E-04 4.584E-04 0.9629 
3.500E-01 4.681E+02 4.728E-01 4.685E+02 5.782E-04 5.600E-04 0.9685 
4.000E-01 4.314E+02 4.208E-01 4.318E+02 6.895E-04 6.708E-04 0.9728 
4.500E-01 4.008E+02 3.796E-01 4.012E+02 8.097E-04 7.904E-04 0.9762 
5.000E-01 3.750E+02 3.461E-01 3.754E+02 9.387E-04 9.188E-04 0.9789 
5.500E-01 3.530E+02 3.182E-01 3.533E+02 1.076E-03 1.056E-03 0.9810 
6.000E-01 3.337E+02 2.947E-01 3.340E+02 1.222E-03 1.201E-03 0.9828 
6.500E-01 3.169E+02 2.745E-01 3.172E+02 1.375E-03 1.354E-03 0.9843 
7.000E-01 3.019E+02 2.570E-01 3.022E+02 1.537E-03 1.515E-03 0.9855 
7.500E-01 2.885E+02 2.417E-01 2.887E+02 1.706E-03 1.683E-03 0.9866 
8.000E-01 2.763E+02 2.282E-01 2.765E+02 1.883E-03 1.860E-03 0.9875 
8.500E-01 2.653E+02 2.161E-01 2.655E+02 2.068E-03 2.044E-03 0.9883 
9.000E-01 2.551E+02 2.054E-01 2.553E+02 2.260E-03 2.235E-03 0.9890 
9.500E-01 2.459E+02 1.957E-01 2.460E+02 2.459E-03 2.434E-03 0.9896 
1.000E+00 2.374E+02 1.869E-01 2.376E+02 2.666E-03 2.640E-03 0.9902 
1.250E+00 2.034E+02 1.529E-01 2.035E+02 3.807E-03 3.777E-03 0.9921 
1.500E+00 1.789E+02 1.297E-01 1.790E+02 5.120E-03 5.087E-03 0.9934 
1.750E+00 1.602E+02 1.128E-01 1.603E+02 6.599E-03 6.561E-03 0.9942 
2.000E+00 1.454E+02 9.991E-02 1.455E+02 8.238E-03 8.195E-03 0.9948 
2.250E+00 1.334E+02 8.975E-02 1.335E+02 1.003E-02 9.986E-03 0.9952 
2.500E+00 1.234E+02 8.152E-02 1.235E+02 1.198E-02 1.193E-02 0.9955 
2.750E+00 1.150E+02 7.472E-02 1.151E+02 1.408E-02 1.402E-02 0.9958 
3.000E+00 1.078E+02 6.899E-02 1.078E+02 1.633E-02 1.626E-02 0.9960 
3.500E+00 9.595E+01 5.989E-02 9.601E+01 2.125E-02 2.117E-02 0.9963 
4.000E+00 8.666E+01 5.297E-02 8.672E+01 2.674E-02 2.665E-02 0.9966 
4.500E+00 7.917E+01 4.751E-02 7.922E+01 3.278E-02 3.267E-02 0.9968 
5.000E+00 7.298E+01 4.311E-02 7.302E+01 3.936E-02 3.924E-02 0.9969 
5.500E+00 6.777E+01 3.947E-02 6.781E+01 4.647E-02 4.633E-02 0.9970 
6.000E+00 6.332E+01 3.641E-02 6.336E+01 5.410E-02 5.395E-02 0.9971 
6.500E+00 5.947E+01 3.380E-02 5.950E+01 6.225E-02 6.207E-02 0.9972 
7.000E+00 5.610E+01 3.156E-02 5.613E+01 7.091E-02 7.071E-02 0.9973 
7.500E+00 5.313E+01 2.960E-02 5.316E+01 8.006E-02 7.985E-02 0.9973 
8.000E+00 5.048E+01 2.787E-02 5.051E+01 8.972E-02 8.948E-02 0.9974 
8.500E+00 4.811E+01 2.634E-02 4.814E+01 9.986E-02 9.960E-02 0.9974 
9.000E+00 4.598E+01 2.497E-02 4.600E+01 1.105E-01 1.102E-01 0.9974 
9.500E+00 4.404E+01 2.374E-02 4.406E+01 1.216E-01 1.213E-01 0.9975 
1.000E+01 4.227E+01 2.263E-02 4.229E+01 1.332E-01 1.329E-01 0.9975 
1.250E+01 3.535E+01 1.837E-02 3.537E+01 1.981E-01 1.976E-01 0.9976 
1.500E+01 3.053E+01 1.549E-02 3.054E+01 2.744E-01 2.738E-01 0.9977 
1.750E+01 2.696E+01 1.340E-02 2.697E+01 3.617E-01 3.609E-01 0.9978 
2.000E+01 2.420E+01 1.182E-02 2.421E+01 4.597E-01 4.587E-01 0.9979 
2.500E+01 2.021E+01 9.577E-03 2.022E+01 6.868E-01 6.854E-01 0.9979 
2.750E+01 1.871E+01 8.754E-03 1.872E+01 8.154E-01 8.137E-01 0.9980 
3.000E+01 1.744E+01 8.064E-03 1.745E+01 9.538E-01 9.519E-01 0.9980 
3.500E+01 1.541E+01 6.971E-03 1.542E+01 1.259E+00 1.257E+00 0.9980 
4.000E+01 1.385E+01 6.144E-03 1.385E+01 1.602E+00 1.599E+00 0.9981 
4.500E+01 1.260E+01 5.496E-03 1.261E+01 1.981E+00 1.977E+00 0.9981 
5.000E+01 1.159E+01 4.974E-03 1.160E+01 2.395E+00 2.390E+00 0.9981 
5.500E+01 1.075E+01 4.544E-03 1.076E+01 2.843E+00 2.838E+00 0.9982 
6.000E+01 1.005E+01 4.184E-03 1.005E+01 3.324E+00 3.318E+00 0.9982 
6.500E+01 9.438E+00 3.879E-03 9.441E+00 3.838E+00 3.831E+00 0.9982 
7.000E+01 8.911E+00 3.615E-03 8.915E+00 4.383E+00 4.375E+00 0.9982 
7.500E+01 8.450E+00 3.386E-03 8.454E+00 4.959E+00 4.950E+00 0.9982 
8.000E+01 8.044E+00 3.185E-03 8.047E+00 5.566E+00 5.556E+00 0.9983 
8.500E+01 7.682E+00 3.007E-03 7.685E+00 6.202E+00 6.191E+00 0.9983 
9.000E+01 7.358E+00 2.848E-03 7.361E+00 6.867E+00 6.855E+00 0.9983 
9.500E+01 7.066E+00 2.705E-03 7.068E+00 7.560E+00 7.547E+00 0.9983 
1.000E+02 6.801E+00 2.577E-03 6.804E+00 8.281E+00 8.267E+00 0.9983 
1.250E+02 5.780E+00 2.084E-03 5.782E+00 1.229E+01 1.227E+01 0.9984 
1.500E+02 5.085E+00 1.753E-03 5.087E+00 1.691E+01 1.688E+01 0.9984 
1.750E+02 4.580E+00 1.514E-03 4.582E+00 2.210E+01 2.206E+01 0.9985 
2.000E+02 4.198E+00 1.333E-03 4.199E+00 2.781E+01 2.777E+01 0.9985 
2.250E+02 3.897E+00 1.192E-03 3.899E+00 3.399E+01 3.394E+01 0.9985 
2.500E+02 3.656E+00 1.078E-03 3.657E+00 4.062E+01 4.056E+01 0.9986 
2.750E+02 3.457E+00 9.848E-04 3.458E+00 4.766E+01 4.759E+01 0.9986 
3.000E+02 3.292E+00 9.067E-04 3.293E+00 5.507E+01 5.499E+01 0.9986 
3.500E+02 3.031E+00 7.831E-04 3.032E+00 7.092E+01 7.083E+01 0.9987 
4.000E+02 2.837E+00 6.898E-04 2.838E+00 8.799E+01 8.788E+01 0.9987 
4.500E+02 2.687E+00 6.168E-04 2.687E+00 1.061E+02 1.060E+02 0.9987 
5.000E+02 2.567E+00 5.581E-04 2.568E+00 1.252E+02 1.250E+02 0.9988 
5.500E+02 2.471E+00 5.098E-04 2.472E+00 1.450E+02 1.448E+02 0.9988 
6.000E+02 2.392E+00 4.694E-04 2.393E+00 1.656E+02 1.654E+02 0.9988 
6.500E+02 2.326E+00 4.351E-04 2.327E+00 1.868E+02 1.866E+02 0.9989 
7.000E+02 2.269E+00 4.056E-04 2.270E+00 2.086E+02 2.083E+02 0.9989 
7.500E+02 2.221E+00 3.799E-04 2.221E+00 2.308E+02 2.306E+02 0.9989 
8.000E+02 2.179E+00 3.574E-04 2.180E+00 2.536E+02 2.533E+02 0.9989 
8.500E+02 2.143E+00 3.375E-04 2.144E+00 2.767E+02 2.764E+02 0.9990 
9.000E+02 2.112E+00 3.197E-04 2.112E+00 3.002E+02 2.999E+02 0.9990 
9.500E+02 2.084E+00 3.037E-04 2.085E+00 3.240E+02 3.237E+02 0.9990 
1.000E+03 2.060E+00 2.894E-04 2.061E+00 3.481E+02 3.478E+02 0.9990 
1.500E+03 1.925E+00 1.973E-04 1.926E+00 6.007E+02 6.002E+02 0.9992 
2.000E+03 1.879E+00 1.504E-04 1.879E+00 8.641E+02 8.634E+02 0.9993 
2.500E+03 1.863E+00 1.220E-04 1.864E+00 1.132E+03 1.131E+03 0.9993 
3.000E+03 1.862E+00 1.028E-04 1.862E+00 1.400E+03 1.399E+03 0.9994 
4.000E+03 1.875E+00 7.844E-05 1.875E+00 1.936E+03 1.935E+03 0.9995 
5.000E+03 1.895E+00 6.363E-05 1.895E+00 2.466E+03 2.465E+03 0.9995 
6.000E+03 1.916E+00 5.364E-05 1.916E+00 2.991E+03 2.990E+03 0.9996 
7.000E+03 1.937E+00 4.643E-05 1.937E+00 3.510E+03 3.509E+03 0.9996 
8.000E+03 1.956E+00 4.098E-05 1.956E+00 4.024E+03 4.022E+03 0.9996 
9.000E+03 1.974E+00 3.670E-05 1.974E+00 4.533E+03 4.531E+03 0.9997 
1.000E+04 1.991E+00 3.325E-05 1.991E+00 5.037E+03 5.035E+03 0.9997 
