// Stopping powers form https://physics.nist.gov/PhysRefData/Star/Text/PSTAR.html
// SP: MeV cm2 / g
// Range: g/cm2
// Kinetic Energy / SP Electronic / SP Nuclear / SP  Total / Range CSDA / Range Projected / Range Detour Factor = Projected / CSDA 
1.000E-03 1.792E+02 3.865E+01 2.178E+02 5.669E-06 2.661E-06 0.4694 
1.500E-03 2.195E+02 3.123E+01 2.507E+02 7.791E-06 3.995E-06 0.5128 
2.000E-03 2.534E+02 2.652E+01 2.799E+02 9.676E-06 5.290E-06 0.5467 
2.500E-03 2.833E+02 2.322E+01 3.065E+02 1.138E-05 6.532E-06 0.5739 
3.000E-03 3.104E+02 2.075E+01 3.311E+02 1.295E-05 7.724E-06 0.5965 
4.000E-03 3.522E+02 1.725E+01 3.695E+02 1.580E-05 9.995E-06 0.6325 
5.000E-03 3.898E+02 1.486E+01 4.047E+02 1.839E-05 1.214E-05 0.6603 
6.000E-03 4.238E+02 1.312E+01 4.369E+02 2.076E-05 1.417E-05 0.6827 
7.000E-03 4.547E+02 1.178E+01 4.665E+02 2.298E-05 1.611E-05 0.7011 
8.000E-03 4.823E+02 1.071E+01 4.930E+02 2.506E-05 1.796E-05 0.7167 
9.000E-03 5.072E+02 9.841E+00 5.170E+02 2.704E-05 1.974E-05 0.7301 
1.000E-02 5.303E+02 9.115E+00 5.394E+02 2.893E-05 2.146E-05 0.7419 
1.250E-02 5.779E+02 7.728E+00 5.857E+02 3.337E-05 2.556E-05 0.7659 
1.500E-02 6.177E+02 6.737E+00 6.245E+02 3.750E-05 2.942E-05 0.7846 
1.750E-02 6.521E+02 5.990E+00 6.581E+02 4.140E-05 3.311E-05 0.7998 
2.000E-02 6.826E+02 5.404E+00 6.880E+02 4.511E-05 3.665E-05 0.8124 
2.250E-02 7.097E+02 4.931E+00 7.146E+02 4.868E-05 4.006E-05 0.8231 
2.500E-02 7.335E+02 4.540E+00 7.380E+02 5.212E-05 4.338E-05 0.8323 
2.750E-02 7.544E+02 4.212E+00 7.586E+02 5.546E-05 4.660E-05 0.8404 
3.000E-02 7.730E+02 3.931E+00 7.770E+02 5.871E-05 4.976E-05 0.8475 
3.500E-02 8.061E+02 3.476E+00 8.096E+02 6.501E-05 5.589E-05 0.8597 
4.000E-02 8.351E+02 3.123E+00 8.382E+02 7.108E-05 6.182E-05 0.8697 
4.500E-02 8.595E+02 2.839E+00 8.624E+02 7.696E-05 6.757E-05 0.8781 
5.000E-02 8.792E+02 2.606E+00 8.818E+02 8.269E-05 7.320E-05 0.8852 
5.500E-02 8.942E+02 2.411E+00 8.966E+02 8.831E-05 7.873E-05 0.8915 
6.000E-02 9.051E+02 2.245E+00 9.074E+02 9.385E-05 8.419E-05 0.8970 
6.500E-02 9.127E+02 2.102E+00 9.148E+02 9.934E-05 8.960E-05 0.9020 
7.000E-02 9.174E+02 1.977E+00 9.194E+02 1.048E-04 9.498E-05 0.9064 
7.500E-02 9.196E+02 1.867E+00 9.214E+02 1.102E-04 1.003E-04 0.9104 
8.000E-02 9.196E+02 1.770E+00 9.213E+02 1.156E-04 1.057E-04 0.9141 
8.500E-02 9.177E+02 1.683E+00 9.193E+02 1.211E-04 1.111E-04 0.9175 
9.000E-02 9.142E+02 1.604E+00 9.158E+02 1.265E-04 1.165E-04 0.9207 
9.500E-02 9.093E+02 1.534E+00 9.108E+02 1.320E-04 1.219E-04 0.9236 
1.000E-01 9.033E+02 1.469E+00 9.047E+02 1.375E-04 1.274E-04 0.9263 
1.250E-01 8.614E+02 1.218E+00 8.627E+02 1.658E-04 1.554E-04 0.9375 
1.500E-01 8.107E+02 1.044E+00 8.117E+02 1.956E-04 1.851E-04 0.9461 
1.750E-01 7.592E+02 9.157E-01 7.601E+02 2.275E-04 2.167E-04 0.9529 
2.000E-01 7.108E+02 8.170E-01 7.116E+02 2.615E-04 2.506E-04 0.9584 
2.250E-01 6.671E+02 7.386E-01 6.679E+02 2.977E-04 2.867E-04 0.9629 
2.500E-01 6.283E+02 6.747E-01 6.290E+02 3.363E-04 3.251E-04 0.9667 
2.750E-01 5.939E+02 6.212E-01 5.946E+02 3.772E-04 3.659E-04 0.9699 
3.000E-01 5.634E+02 5.757E-01 5.640E+02 4.204E-04 4.089E-04 0.9726 
3.500E-01 5.118E+02 5.030E-01 5.123E+02 5.136E-04 5.017E-04 0.9769 
4.000E-01 4.702E+02 4.473E-01 4.706E+02 6.155E-04 6.033E-04 0.9802 
4.500E-01 4.359E+02 4.032E-01 4.363E+02 7.260E-04 7.134E-04 0.9828 
5.000E-01 4.072E+02 3.674E-01 4.076E+02 8.446E-04 8.318E-04 0.9848 
5.500E-01 3.828E+02 3.377E-01 3.831E+02 9.712E-04 9.580E-04 0.9864 
6.000E-01 3.614E+02 3.125E-01 3.617E+02 1.106E-03 1.092E-03 0.9877 
6.500E-01 3.429E+02 2.909E-01 3.432E+02 1.248E-03 1.234E-03 0.9888 
7.000E-01 3.264E+02 2.722E-01 3.267E+02 1.397E-03 1.383E-03 0.9898 
7.500E-01 3.116E+02 2.558E-01 3.119E+02 1.554E-03 1.539E-03 0.9905 
8.000E-01 2.984E+02 2.414E-01 2.986E+02 1.718E-03 1.702E-03 0.9912 
8.500E-01 2.864E+02 2.286E-01 2.867E+02 1.888E-03 1.873E-03 0.9918 
9.000E-01 2.754E+02 2.171E-01 2.756E+02 2.066E-03 2.050E-03 0.9923 
9.500E-01 2.653E+02 2.067E-01 2.655E+02 2.251E-03 2.235E-03 0.9927 
1.000E+00 2.561E+02 1.974E-01 2.563E+02 2.443E-03 2.426E-03 0.9931 
1.250E+00 2.190E+02 1.612E-01 2.192E+02 3.502E-03 3.483E-03 0.9946 
1.500E+00 1.924E+02 1.366E-01 1.925E+02 4.722E-03 4.700E-03 0.9954 
1.750E+00 1.721E+02 1.186E-01 1.722E+02 6.097E-03 6.073E-03 0.9960 
2.000E+00 1.561E+02 1.050E-01 1.562E+02 7.624E-03 7.597E-03 0.9964 
2.250E+00 1.430E+02 9.423E-02 1.431E+02 9.298E-03 9.268E-03 0.9967 
2.500E+00 1.322E+02 8.552E-02 1.323E+02 1.112E-02 1.108E-02 0.9970 
2.750E+00 1.231E+02 7.833E-02 1.231E+02 1.308E-02 1.304E-02 0.9972 
3.000E+00 1.152E+02 7.228E-02 1.153E+02 1.518E-02 1.514E-02 0.9973 
3.500E+00 1.024E+02 6.268E-02 1.025E+02 1.978E-02 1.974E-02 0.9976 
4.000E+00 9.239E+01 5.537E-02 9.244E+01 2.493E-02 2.487E-02 0.9977 
4.500E+00 8.430E+01 4.963E-02 8.435E+01 3.060E-02 3.053E-02 0.9978 
5.000E+00 7.762E+01 4.499E-02 7.767E+01 3.678E-02 3.671E-02 0.9979 
5.500E+00 7.201E+01 4.117E-02 7.205E+01 4.347E-02 4.338E-02 0.9980 
6.000E+00 6.722E+01 3.795E-02 6.726E+01 5.066E-02 5.056E-02 0.9981 
6.500E+00 6.308E+01 3.522E-02 6.312E+01 5.834E-02 5.823E-02 0.9981 
7.000E+00 5.947E+01 3.286E-02 5.950E+01 6.650E-02 6.638E-02 0.9982 
7.500E+00 5.628E+01 3.080E-02 5.631E+01 7.514E-02 7.501E-02 0.9982 
8.000E+00 5.344E+01 2.899E-02 5.347E+01 8.426E-02 8.411E-02 0.9983 
8.500E+00 5.091E+01 2.739E-02 5.094E+01 9.384E-02 9.368E-02 0.9983 
9.000E+00 4.862E+01 2.596E-02 4.865E+01 1.039E-01 1.037E-01 0.9983 
9.500E+00 4.655E+01 2.467E-02 4.657E+01 1.144E-01 1.142E-01 0.9983 
1.000E+01 4.466E+01 2.351E-02 4.468E+01 1.254E-01 1.252E-01 0.9984 
1.250E+01 3.728E+01 1.906E-02 3.730E+01 1.869E-01 1.866E-01 0.9985 
1.500E+01 3.214E+01 1.604E-02 3.216E+01 2.593E-01 2.589E-01 0.9985 
1.750E+01 2.835E+01 1.387E-02 2.836E+01 3.423E-01 3.418E-01 0.9986 
2.000E+01 2.542E+01 1.222E-02 2.544E+01 4.355E-01 4.349E-01 0.9986 
2.500E+01 2.120E+01 9.896E-03 2.121E+01 6.518E-01 6.509E-01 0.9987 
2.750E+01 1.961E+01 9.041E-03 1.962E+01 7.745E-01 7.734E-01 0.9987 
3.000E+01 1.827E+01 8.325E-03 1.828E+01 9.066E-01 9.054E-01 0.9987 
3.500E+01 1.613E+01 7.192E-03 1.614E+01 1.198E+00 1.197E+00 0.9987 
4.000E+01 1.448E+01 6.335E-03 1.449E+01 1.526E+00 1.524E+00 0.9988 
4.500E+01 1.318E+01 5.665E-03 1.318E+01 1.888E+00 1.886E+00 0.9988 
5.000E+01 1.211E+01 5.125E-03 1.212E+01 2.284E+00 2.282E+00 0.9988 
5.500E+01 1.123E+01 4.681E-03 1.123E+01 2.713E+00 2.710E+00 0.9988 
6.000E+01 1.048E+01 4.309E-03 1.049E+01 3.174E+00 3.170E+00 0.9988 
6.500E+01 9.847E+00 3.993E-03 9.851E+00 3.666E+00 3.662E+00 0.9988 
7.000E+01 9.295E+00 3.721E-03 9.298E+00 4.189E+00 4.184E+00 0.9989 
7.500E+01 8.811E+00 3.485E-03 8.815E+00 4.742E+00 4.736E+00 0.9989 
8.000E+01 8.385E+00 3.277E-03 8.388E+00 5.323E+00 5.317E+00 0.9989 
8.500E+01 8.006E+00 3.093E-03 8.009E+00 5.933E+00 5.927E+00 0.9989 
9.000E+01 7.666E+00 2.930E-03 7.669E+00 6.572E+00 6.564E+00 0.9989 
9.500E+01 7.360E+00 2.783E-03 7.363E+00 7.237E+00 7.229E+00 0.9989 
1.000E+02 7.083E+00 2.650E-03 7.086E+00 7.930E+00 7.921E+00 0.9989 
1.250E+02 6.015E+00 2.143E-03 6.017E+00 1.178E+01 1.176E+01 0.9989 
1.500E+02 5.288E+00 1.801E-03 5.290E+00 1.622E+01 1.620E+01 0.9990 
1.750E+02 4.761E+00 1.555E-03 4.762E+00 2.121E+01 2.119E+01 0.9990 
2.000E+02 4.361E+00 1.369E-03 4.363E+00 2.671E+01 2.668E+01 0.9990 
2.250E+02 4.048E+00 1.224E-03 4.049E+00 3.266E+01 3.263E+01 0.9991 
2.500E+02 3.796E+00 1.107E-03 3.797E+00 3.904E+01 3.901E+01 0.9991 
2.750E+02 3.589E+00 1.011E-03 3.590E+00 4.582E+01 4.578E+01 0.9991 
3.000E+02 3.416E+00 9.310E-04 3.417E+00 5.296E+01 5.291E+01 0.9991 
3.500E+02 3.145E+00 8.040E-04 3.145E+00 6.824E+01 6.818E+01 0.9991 
4.000E+02 2.942E+00 7.081E-04 2.942E+00 8.470E+01 8.463E+01 0.9992 
4.500E+02 2.785E+00 6.331E-04 2.786E+00 1.022E+02 1.021E+02 0.9992 
5.000E+02 2.661E+00 5.728E-04 2.661E+00 1.206E+02 1.205E+02 0.9992 
5.500E+02 2.561E+00 5.232E-04 2.561E+00 1.397E+02 1.396E+02 0.9992 
6.000E+02 2.478E+00 4.817E-04 2.479E+00 1.596E+02 1.595E+02 0.9992 
6.500E+02 2.410E+00 4.465E-04 2.410E+00 1.800E+02 1.799E+02 0.9993 
7.000E+02 2.352E+00 4.162E-04 2.353E+00 2.010E+02 2.009E+02 0.9993 
7.500E+02 2.303E+00 3.898E-04 2.304E+00 2.225E+02 2.224E+02 0.9993 
8.000E+02 2.260E+00 3.667E-04 2.261E+00 2.444E+02 2.443E+02 0.9993 
8.500E+02 2.223E+00 3.462E-04 2.223E+00 2.667E+02 2.666E+02 0.9993 
9.000E+02 2.191E+00 3.280E-04 2.191E+00 2.894E+02 2.892E+02 0.9993 
9.500E+02 2.162E+00 3.116E-04 2.162E+00 3.124E+02 3.122E+02 0.9994 
1.000E+03 2.137E+00 2.969E-04 2.137E+00 3.356E+02 3.354E+02 0.9994 
1.500E+03 1.996E+00 2.024E-04 1.996E+00 5.792E+02 5.788E+02 0.9995 
2.000E+03 1.946E+00 1.543E-04 1.946E+00 8.333E+02 8.329E+02 0.9995 
2.500E+03 1.929E+00 1.251E-04 1.929E+00 1.092E+03 1.091E+03 0.9996 
3.000E+03 1.926E+00 1.054E-04 1.926E+00 1.351E+03 1.351E+03 0.9996 
4.000E+03 1.938E+00 8.042E-05 1.938E+00 1.869E+03 1.868E+03 0.9997 
5.000E+03 1.957E+00 6.523E-05 1.957E+00 2.383E+03 2.382E+03 0.9997 
6.000E+03 1.978E+00 5.499E-05 1.978E+00 2.891E+03 2.890E+03 0.9997 
7.000E+03 1.998E+00 4.759E-05 1.998E+00 3.394E+03 3.393E+03 0.9998 
8.000E+03 2.018E+00 4.200E-05 2.018E+00 3.892E+03 3.891E+03 0.9998 
9.000E+03 2.036E+00 3.761E-05 2.036E+00 4.385E+03 4.384E+03 0.9998 
1.000E+04 2.053E+00 3.408E-05 2.053E+00 4.874E+03 4.873E+03 0.9998 
