// Stopping powers form https://physics.nist.gov/PhysRefData/Star/Text/PSTAR.html
// SP: MeV cm2 / g
// Range: g/cm2
// Kinetic Energy / SP Electronic / SP Nuclear / SP  Total / Range CSDA / Range Projected / Range Detour Factor = Projected / CSDA 
1.000E-03 6.133E+01 8.943E+00 7.027E+01 1.948E-05 5.171E-06 0.2655 
1.500E-03 7.512E+01 7.595E+00 8.271E+01 2.597E-05 7.536E-06 0.2902 
2.000E-03 8.674E+01 6.716E+00 9.345E+01 3.165E-05 9.850E-06 0.3112 
2.500E-03 9.697E+01 6.080E+00 1.031E+02 3.674E-05 1.210E-05 0.3294 
3.000E-03 1.062E+02 5.591E+00 1.118E+02 4.139E-05 1.431E-05 0.3456 
4.000E-03 1.222E+02 4.873E+00 1.271E+02 4.977E-05 1.859E-05 0.3735 
5.000E-03 1.363E+02 4.361E+00 1.407E+02 5.724E-05 2.273E-05 0.3971 
6.000E-03 1.491E+02 3.972E+00 1.530E+02 6.405E-05 2.674E-05 0.4175 
7.000E-03 1.608E+02 3.662E+00 1.644E+02 7.035E-05 3.063E-05 0.4354 
8.000E-03 1.716E+02 3.408E+00 1.750E+02 7.624E-05 3.442E-05 0.4514 
9.000E-03 1.816E+02 3.194E+00 1.848E+02 8.180E-05 3.811E-05 0.4659 
1.000E-02 1.911E+02 3.012E+00 1.941E+02 8.707E-05 4.172E-05 0.4791 
1.250E-02 2.100E+02 2.651E+00 2.126E+02 9.935E-05 5.045E-05 0.5078 
1.500E-02 2.263E+02 2.381E+00 2.287E+02 1.107E-04 5.888E-05 0.5319 
1.750E-02 2.406E+02 2.169E+00 2.428E+02 1.213E-04 6.703E-05 0.5527 
2.000E-02 2.535E+02 1.998E+00 2.555E+02 1.313E-04 7.494E-05 0.5707 
2.250E-02 2.650E+02 1.856E+00 2.669E+02 1.409E-04 8.266E-05 0.5867 
2.500E-02 2.754E+02 1.736E+00 2.772E+02 1.501E-04 9.020E-05 0.6011 
2.750E-02 2.848E+02 1.633E+00 2.864E+02 1.589E-04 9.759E-05 0.6140 
3.000E-02 2.933E+02 1.543E+00 2.948E+02 1.675E-04 1.048E-04 0.6258 
3.500E-02 3.080E+02 1.394E+00 3.094E+02 1.841E-04 1.190E-04 0.6465 
4.000E-02 3.203E+02 1.274E+00 3.215E+02 1.999E-04 1.328E-04 0.6644 
4.500E-02 3.303E+02 1.176E+00 3.315E+02 2.152E-04 1.463E-04 0.6799 
5.000E-02 3.384E+02 1.093E+00 3.395E+02 2.301E-04 1.596E-04 0.6937 
5.500E-02 3.447E+02 1.023E+00 3.457E+02 2.447E-04 1.728E-04 0.7061 
6.000E-02 3.494E+02 9.622E-01 3.504E+02 2.591E-04 1.858E-04 0.7173 
6.500E-02 3.528E+02 9.090E-01 3.537E+02 2.733E-04 1.988E-04 0.7275 
7.000E-02 3.551E+02 8.621E-01 3.560E+02 2.874E-04 2.118E-04 0.7369 
7.500E-02 3.564E+02 8.203E-01 3.573E+02 3.014E-04 2.247E-04 0.7456 
8.000E-02 3.569E+02 7.828E-01 3.577E+02 3.154E-04 2.377E-04 0.7537 
8.500E-02 3.566E+02 7.489E-01 3.574E+02 3.293E-04 2.507E-04 0.7612 
9.000E-02 3.557E+02 7.182E-01 3.564E+02 3.434E-04 2.638E-04 0.7683 
9.500E-02 3.543E+02 6.901E-01 3.550E+02 3.574E-04 2.770E-04 0.7749 
1.000E-01 3.524E+02 6.644E-01 3.531E+02 3.715E-04 2.902E-04 0.7812 
1.250E-01 3.389E+02 5.622E-01 3.395E+02 4.436E-04 3.584E-04 0.8079 
1.500E-01 3.223E+02 4.894E-01 3.228E+02 5.191E-04 4.304E-04 0.8290 
1.750E-01 3.055E+02 4.346E-01 3.060E+02 5.987E-04 5.066E-04 0.8462 
2.000E-01 2.899E+02 3.918E-01 2.903E+02 6.826E-04 5.873E-04 0.8604 
2.250E-01 2.757E+02 3.573E-01 2.760E+02 7.710E-04 6.726E-04 0.8724 
2.500E-01 2.630E+02 3.288E-01 2.633E+02 8.637E-04 7.623E-04 0.8826 
2.750E-01 2.517E+02 3.048E-01 2.520E+02 9.608E-04 8.563E-04 0.8913 
3.000E-01 2.415E+02 2.842E-01 2.418E+02 1.062E-03 9.546E-04 0.8988 
3.500E-01 2.244E+02 2.510E-01 2.246E+02 1.277E-03 1.163E-03 0.9111 
4.000E-01 2.103E+02 2.252E-01 2.105E+02 1.507E-03 1.388E-03 0.9207 
4.500E-01 1.983E+02 2.045E-01 1.985E+02 1.752E-03 1.626E-03 0.9283 
5.000E-01 1.880E+02 1.875E-01 1.882E+02 2.011E-03 1.879E-03 0.9345 
5.500E-01 1.790E+02 1.734E-01 1.792E+02 2.283E-03 2.145E-03 0.9396 
6.000E-01 1.710E+02 1.613E-01 1.712E+02 2.569E-03 2.425E-03 0.9439 
6.500E-01 1.639E+02 1.509E-01 1.640E+02 2.867E-03 2.717E-03 0.9476 
7.000E-01 1.575E+02 1.419E-01 1.576E+02 3.178E-03 3.021E-03 0.9507 
7.500E-01 1.516E+02 1.339E-01 1.518E+02 3.501E-03 3.338E-03 0.9534 
8.000E-01 1.463E+02 1.268E-01 1.464E+02 3.837E-03 3.667E-03 0.9558 
8.500E-01 1.413E+02 1.205E-01 1.414E+02 4.184E-03 4.008E-03 0.9579 
9.000E-01 1.366E+02 1.149E-01 1.367E+02 4.544E-03 4.361E-03 0.9597 
9.500E-01 1.321E+02 1.097E-01 1.323E+02 4.916E-03 4.726E-03 0.9614 
1.000E+00 1.280E+02 1.051E-01 1.281E+02 5.300E-03 5.103E-03 0.9629 
1.250E+00 1.106E+02 8.692E-02 1.107E+02 7.406E-03 7.172E-03 0.9685 
1.500E+00 9.775E+01 7.438E-02 9.783E+01 9.813E-03 9.541E-03 0.9722 
1.750E+00 8.792E+01 6.515E-02 8.799E+01 1.251E-02 1.220E-02 0.9749 
2.000E+00 8.020E+01 5.806E-02 8.026E+01 1.549E-02 1.513E-02 0.9768 
2.250E+00 7.400E+01 5.243E-02 7.405E+01 1.874E-02 1.833E-02 0.9783 
2.500E+00 6.890E+01 4.785E-02 6.895E+01 2.224E-02 2.178E-02 0.9794 
2.750E+00 6.465E+01 4.404E-02 6.469E+01 2.599E-02 2.548E-02 0.9804 
3.000E+00 6.104E+01 4.083E-02 6.108E+01 2.997E-02 2.940E-02 0.9811 
3.500E+00 5.520E+01 3.568E-02 5.523E+01 3.859E-02 3.791E-02 0.9824 
4.000E+00 5.053E+01 3.173E-02 5.057E+01 4.806E-02 4.726E-02 0.9833 
4.500E+00 4.670E+01 2.860E-02 4.672E+01 5.836E-02 5.742E-02 0.9840 
5.000E+00 4.348E+01 2.606E-02 4.351E+01 6.946E-02 6.838E-02 0.9845 
5.500E+00 4.074E+01 2.395E-02 4.077E+01 8.134E-02 8.012E-02 0.9850 
6.000E+00 3.836E+01 2.217E-02 3.838E+01 9.398E-02 9.261E-02 0.9854 
6.500E+00 3.628E+01 2.065E-02 3.630E+01 1.074E-01 1.059E-01 0.9858 
7.000E+00 3.443E+01 1.933E-02 3.445E+01 1.215E-01 1.198E-01 0.9861 
7.500E+00 3.280E+01 1.818E-02 3.282E+01 1.364E-01 1.345E-01 0.9864 
8.000E+00 3.133E+01 1.716E-02 3.135E+01 1.520E-01 1.500E-01 0.9866 
8.500E+00 3.000E+01 1.626E-02 3.002E+01 1.683E-01 1.661E-01 0.9868 
9.000E+00 2.880E+01 1.545E-02 2.881E+01 1.853E-01 1.829E-01 0.9870 
9.500E+00 2.770E+01 1.472E-02 2.771E+01 2.030E-01 2.004E-01 0.9872 
1.000E+01 2.669E+01 1.406E-02 2.671E+01 2.214E-01 2.186E-01 0.9874 
1.250E+01 2.268E+01 1.150E-02 2.269E+01 3.233E-01 3.195E-01 0.9880 
1.500E+01 1.983E+01 9.761E-03 1.984E+01 4.415E-01 4.364E-01 0.9885 
1.750E+01 1.768E+01 8.491E-03 1.768E+01 5.752E-01 5.689E-01 0.9889 
2.000E+01 1.599E+01 7.524E-03 1.600E+01 7.241E-01 7.163E-01 0.9892 
2.500E+01 1.352E+01 6.143E-03 1.352E+01 1.065E+00 1.054E+00 0.9897 
2.750E+01 1.258E+01 5.632E-03 1.258E+01 1.257E+00 1.244E+00 0.9899 
3.000E+01 1.178E+01 5.202E-03 1.178E+01 1.463E+00 1.448E+00 0.9900 
3.500E+01 1.048E+01 4.519E-03 1.048E+01 1.913E+00 1.895E+00 0.9903 
4.000E+01 9.471E+00 3.998E-03 9.475E+00 2.416E+00 2.393E+00 0.9905 
4.500E+01 8.664E+00 3.589E-03 8.668E+00 2.968E+00 2.941E+00 0.9907 
5.000E+01 8.003E+00 3.257E-03 8.007E+00 3.569E+00 3.537E+00 0.9909 
5.500E+01 7.451E+00 2.984E-03 7.454E+00 4.217E+00 4.179E+00 0.9910 
6.000E+01 6.982E+00 2.754E-03 6.985E+00 4.910E+00 4.867E+00 0.9912 
6.500E+01 6.578E+00 2.558E-03 6.581E+00 5.648E+00 5.599E+00 0.9913 
7.000E+01 6.227E+00 2.388E-03 6.230E+00 6.429E+00 6.374E+00 0.9914 
7.500E+01 5.919E+00 2.241E-03 5.921E+00 7.253E+00 7.191E+00 0.9915 
8.000E+01 5.646E+00 2.111E-03 5.648E+00 8.118E+00 8.050E+00 0.9916 
8.500E+01 5.402E+00 1.995E-03 5.404E+00 9.023E+00 8.948E+00 0.9917 
9.000E+01 5.184E+00 1.892E-03 5.186E+00 9.968E+00 9.886E+00 0.9918 
9.500E+01 4.986E+00 1.800E-03 4.988E+00 1.095E+01 1.086E+01 0.9918 
1.000E+02 4.807E+00 1.716E-03 4.808E+00 1.197E+01 1.188E+01 0.9919 
1.250E+02 4.111E+00 1.394E-03 4.112E+00 1.762E+01 1.748E+01 0.9922 
1.500E+02 3.634E+00 1.176E-03 3.635E+00 2.410E+01 2.392E+01 0.9924 
1.750E+02 3.285E+00 1.018E-03 3.286E+00 3.135E+01 3.112E+01 0.9927 
2.000E+02 3.020E+00 8.988E-04 3.021E+00 3.930E+01 3.902E+01 0.9928 
2.250E+02 2.811E+00 8.049E-04 2.812E+00 4.788E+01 4.755E+01 0.9930 
2.500E+02 2.643E+00 7.292E-04 2.644E+00 5.706E+01 5.667E+01 0.9932 
2.750E+02 2.505E+00 6.668E-04 2.505E+00 6.678E+01 6.633E+01 0.9933 
3.000E+02 2.389E+00 6.145E-04 2.390E+00 7.700E+01 7.650E+01 0.9934 
3.500E+02 2.207E+00 5.316E-04 2.207E+00 9.881E+01 9.819E+01 0.9937 
4.000E+02 2.070E+00 4.689E-04 2.071E+00 1.222E+02 1.215E+02 0.9939 
4.500E+02 1.965E+00 4.198E-04 1.965E+00 1.470E+02 1.462E+02 0.9941 
5.000E+02 1.882E+00 3.801E-04 1.882E+00 1.731E+02 1.721E+02 0.9942 
5.500E+02 1.814E+00 3.475E-04 1.815E+00 2.001E+02 1.990E+02 0.9944 
6.000E+02 1.759E+00 3.202E-04 1.759E+00 2.281E+02 2.269E+02 0.9945 
6.500E+02 1.712E+00 2.970E-04 1.712E+00 2.569E+02 2.556E+02 0.9946 
7.000E+02 1.673E+00 2.770E-04 1.673E+00 2.865E+02 2.850E+02 0.9948 
7.500E+02 1.639E+00 2.596E-04 1.640E+00 3.167E+02 3.151E+02 0.9949 
8.000E+02 1.611E+00 2.443E-04 1.611E+00 3.475E+02 3.457E+02 0.9950 
8.500E+02 1.586E+00 2.307E-04 1.586E+00 3.787E+02 3.769E+02 0.9951 
9.000E+02 1.565E+00 2.187E-04 1.565E+00 4.105E+02 4.085E+02 0.9952 
9.500E+02 1.547E+00 2.078E-04 1.547E+00 4.426E+02 4.405E+02 0.9953 
1.000E+03 1.530E+00 1.980E-04 1.531E+00 4.751E+02 4.729E+02 0.9954 
1.500E+03 1.445E+00 1.353E-04 1.446E+00 8.132E+02 8.100E+02 0.9961 
2.000E+03 1.422E+00 1.033E-04 1.422E+00 1.162E+03 1.158E+03 0.9965 
2.500E+03 1.421E+00 8.380E-05 1.421E+00 1.514E+03 1.510E+03 0.9969 
3.000E+03 1.428E+00 7.065E-05 1.428E+00 1.866E+03 1.860E+03 0.9971 
4.000E+03 1.451E+00 5.399E-05 1.451E+00 2.561E+03 2.554E+03 0.9975 
5.000E+03 1.477E+00 4.383E-05 1.477E+00 3.244E+03 3.236E+03 0.9978 
6.000E+03 1.502E+00 3.697E-05 1.502E+00 3.915E+03 3.907E+03 0.9980 
7.000E+03 1.525E+00 3.201E-05 1.525E+00 4.576E+03 4.567E+03 0.9982 
8.000E+03 1.546E+00 2.826E-05 1.546E+00 5.227E+03 5.218E+03 0.9983 
9.000E+03 1.565E+00 2.532E-05 1.565E+00 5.869E+03 5.860E+03 0.9984 
1.000E+04 1.583E+00 2.295E-05 1.583E+00 6.505E+03 6.495E+03 0.9985 
