// Stopping powers form https://physics.nist.gov/PhysRefData/Star/Text/PSTAR.html
// SP: MeV cm2 / g
// Range: g/cm2
// Kinetic Energy / SP Electronic / SP Nuclear / SP  Total / Range CSDA / Range Projected / Range Detour Factor = Projected / CSDA 
1.000E-03 2.258E+02 5.407E+01 2.799E+02 4.193E-06 2.300E-06 0.5486 
1.500E-03 2.765E+02 4.284E+01 3.194E+02 5.852E-06 3.439E-06 0.5877 
2.000E-03 3.193E+02 3.593E+01 3.552E+02 7.335E-06 4.533E-06 0.6180 
2.500E-03 3.570E+02 3.117E+01 3.882E+02 8.681E-06 5.575E-06 0.6422 
3.000E-03 3.911E+02 2.766E+01 4.187E+02 9.920E-06 6.568E-06 0.6621 
4.000E-03 4.459E+02 2.277E+01 4.687E+02 1.217E-05 8.444E-06 0.6937 
5.000E-03 4.949E+02 1.949E+01 5.144E+02 1.421E-05 1.020E-05 0.7178 
6.000E-03 5.391E+02 1.712E+01 5.562E+02 1.608E-05 1.185E-05 0.7370 
7.000E-03 5.796E+02 1.531E+01 5.949E+02 1.781E-05 1.341E-05 0.7528 
8.000E-03 6.160E+02 1.387E+01 6.299E+02 1.944E-05 1.490E-05 0.7660 
9.000E-03 6.495E+02 1.271E+01 6.622E+02 2.099E-05 1.632E-05 0.7774 
1.000E-02 6.806E+02 1.175E+01 6.924E+02 2.247E-05 1.769E-05 0.7873 
1.250E-02 7.429E+02 9.913E+00 7.528E+02 2.592E-05 2.093E-05 0.8075 
1.500E-02 7.951E+02 8.613E+00 8.037E+02 2.914E-05 2.398E-05 0.8232 
1.750E-02 8.401E+02 7.637E+00 8.478E+02 3.216E-05 2.688E-05 0.8358 
2.000E-02 8.799E+02 6.875E+00 8.867E+02 3.504E-05 2.966E-05 0.8463 
2.250E-02 9.148E+02 6.262E+00 9.211E+02 3.781E-05 3.233E-05 0.8552 
2.500E-02 9.455E+02 5.757E+00 9.513E+02 4.048E-05 3.493E-05 0.8629 
2.750E-02 9.724E+02 5.334E+00 9.777E+02 4.307E-05 3.745E-05 0.8696 
3.000E-02 9.961E+02 4.972E+00 1.001E+03 4.560E-05 3.992E-05 0.8755 
3.500E-02 1.037E+03 4.389E+00 1.041E+03 5.049E-05 4.471E-05 0.8855 
4.000E-02 1.071E+03 3.936E+00 1.075E+03 5.521E-05 4.935E-05 0.8938 
4.500E-02 1.099E+03 3.573E+00 1.102E+03 5.980E-05 5.387E-05 0.9008 
5.000E-02 1.120E+03 3.276E+00 1.123E+03 6.430E-05 5.830E-05 0.9067 
5.500E-02 1.135E+03 3.028E+00 1.138E+03 6.872E-05 6.266E-05 0.9119 
6.000E-02 1.145E+03 2.817E+00 1.148E+03 7.309E-05 6.699E-05 0.9165 
6.500E-02 1.150E+03 2.635E+00 1.153E+03 7.744E-05 7.129E-05 0.9206 
7.000E-02 1.152E+03 2.477E+00 1.155E+03 8.177E-05 7.558E-05 0.9243 
7.500E-02 1.152E+03 2.338E+00 1.154E+03 8.610E-05 7.987E-05 0.9277 
8.000E-02 1.148E+03 2.215E+00 1.150E+03 9.044E-05 8.417E-05 0.9307 
8.500E-02 1.142E+03 2.105E+00 1.144E+03 9.480E-05 8.850E-05 0.9336 
9.000E-02 1.135E+03 2.006E+00 1.137E+03 9.918E-05 9.285E-05 0.9362 
9.500E-02 1.126E+03 1.916E+00 1.128E+03 1.036E-04 9.723E-05 0.9386 
1.000E-01 1.115E+03 1.835E+00 1.117E+03 1.080E-04 1.017E-04 0.9409 
1.250E-01 1.052E+03 1.518E+00 1.054E+03 1.311E-04 1.245E-04 0.9502 
1.500E-01 9.815E+02 1.300E+00 9.828E+02 1.556E-04 1.490E-04 0.9573 
1.750E-01 9.128E+02 1.139E+00 9.139E+02 1.820E-04 1.752E-04 0.9629 
2.000E-01 8.497E+02 1.015E+00 8.507E+02 2.104E-04 2.035E-04 0.9674 
2.250E-01 7.956E+02 9.168E-01 7.965E+02 2.408E-04 2.338E-04 0.9711 
2.500E-01 7.490E+02 8.369E-01 7.498E+02 2.731E-04 2.661E-04 0.9741 
2.750E-01 7.083E+02 7.698E-01 7.091E+02 3.074E-04 3.003E-04 0.9766 
3.000E-01 6.724E+02 7.126E-01 6.731E+02 3.436E-04 3.364E-04 0.9788 
3.500E-01 6.117E+02 6.212E-01 6.123E+02 4.216E-04 4.141E-04 0.9822 
4.000E-01 5.621E+02 5.514E-01 5.626E+02 5.069E-04 4.992E-04 0.9848 
4.500E-01 5.206E+02 4.963E-01 5.211E+02 5.993E-04 5.914E-04 0.9868 
5.000E-01 4.853E+02 4.515E-01 4.858E+02 6.988E-04 6.906E-04 0.9883 
5.500E-01 4.549E+02 4.145E-01 4.553E+02 8.052E-04 7.968E-04 0.9896 
6.000E-01 4.284E+02 3.832E-01 4.288E+02 9.184E-04 9.098E-04 0.9906 
6.500E-01 4.055E+02 3.564E-01 4.058E+02 1.038E-03 1.029E-03 0.9915 
7.000E-01 3.852E+02 3.332E-01 3.855E+02 1.165E-03 1.156E-03 0.9922 
7.500E-01 3.671E+02 3.129E-01 3.674E+02 1.298E-03 1.288E-03 0.9928 
8.000E-01 3.508E+02 2.951E-01 3.511E+02 1.437E-03 1.427E-03 0.9933 
8.500E-01 3.362E+02 2.792E-01 3.365E+02 1.582E-03 1.573E-03 0.9937 
9.000E-01 3.228E+02 2.651E-01 3.230E+02 1.734E-03 1.724E-03 0.9941 
9.500E-01 3.105E+02 2.523E-01 3.108E+02 1.892E-03 1.881E-03 0.9944 
1.000E+00 2.993E+02 2.408E-01 2.995E+02 2.056E-03 2.045E-03 0.9947 
1.250E+00 2.546E+02 1.963E-01 2.548E+02 2.964E-03 2.952E-03 0.9958 
1.500E+00 2.227E+02 1.660E-01 2.229E+02 4.016E-03 4.002E-03 0.9965 
1.750E+00 1.986E+02 1.440E-01 1.987E+02 5.206E-03 5.190E-03 0.9969 
2.000E+00 1.796E+02 1.273E-01 1.797E+02 6.531E-03 6.513E-03 0.9972 
2.250E+00 1.642E+02 1.142E-01 1.643E+02 7.988E-03 7.968E-03 0.9975 
2.500E+00 1.515E+02 1.036E-01 1.516E+02 9.574E-03 9.551E-03 0.9976 
2.750E+00 1.408E+02 9.481E-02 1.409E+02 1.129E-02 1.126E-02 0.9978 
3.000E+00 1.316E+02 8.744E-02 1.317E+02 1.312E-02 1.309E-02 0.9979 
3.500E+00 1.167E+02 7.575E-02 1.168E+02 1.716E-02 1.713E-02 0.9981 
4.000E+00 1.051E+02 6.688E-02 1.051E+02 2.168E-02 2.164E-02 0.9982 
4.500E+00 9.572E+01 5.991E-02 9.578E+01 2.667E-02 2.662E-02 0.9983 
5.000E+00 8.802E+01 5.429E-02 8.808E+01 3.212E-02 3.206E-02 0.9983 
5.500E+00 8.156E+01 4.965E-02 8.161E+01 3.802E-02 3.796E-02 0.9984 
6.000E+00 7.606E+01 4.576E-02 7.611E+01 4.437E-02 4.430E-02 0.9985 
6.500E+00 7.132E+01 4.245E-02 7.136E+01 5.116E-02 5.108E-02 0.9985 
7.000E+00 6.717E+01 3.959E-02 6.721E+01 5.838E-02 5.829E-02 0.9985 
7.500E+00 6.352E+01 3.711E-02 6.356E+01 6.603E-02 6.594E-02 0.9986 
8.000E+00 6.028E+01 3.492E-02 6.032E+01 7.411E-02 7.401E-02 0.9986 
8.500E+00 5.739E+01 3.298E-02 5.742E+01 8.261E-02 8.250E-02 0.9986 
9.000E+00 5.478E+01 3.126E-02 5.481E+01 9.153E-02 9.140E-02 0.9986 
9.500E+00 5.242E+01 2.970E-02 5.245E+01 1.009E-01 1.007E-01 0.9986 
1.000E+01 5.027E+01 2.830E-02 5.030E+01 1.106E-01 1.104E-01 0.9987 
1.250E+01 4.188E+01 2.292E-02 4.190E+01 1.653E-01 1.651E-01 0.9987 
1.500E+01 3.605E+01 1.929E-02 3.607E+01 2.298E-01 2.295E-01 0.9988 
1.750E+01 3.176E+01 1.667E-02 3.178E+01 3.038E-01 3.035E-01 0.9988 
2.000E+01 2.846E+01 1.469E-02 2.847E+01 3.871E-01 3.866E-01 0.9988 
2.500E+01 2.369E+01 1.189E-02 2.370E+01 5.805E-01 5.798E-01 0.9989 
2.750E+01 2.191E+01 1.086E-02 2.192E+01 6.902E-01 6.895E-01 0.9989 
3.000E+01 2.040E+01 1.000E-02 2.041E+01 8.085E-01 8.076E-01 0.9989 
3.500E+01 1.799E+01 8.638E-03 1.800E+01 1.070E+00 1.069E+00 0.9989 
4.000E+01 1.614E+01 7.608E-03 1.615E+01 1.364E+00 1.362E+00 0.9989 
4.500E+01 1.468E+01 6.801E-03 1.468E+01 1.689E+00 1.687E+00 0.9990 
5.000E+01 1.349E+01 6.153E-03 1.349E+01 2.045E+00 2.042E+00 0.9990 
5.500E+01 1.250E+01 5.619E-03 1.250E+01 2.430E+00 2.427E+00 0.9990 
6.000E+01 1.166E+01 5.172E-03 1.167E+01 2.844E+00 2.841E+00 0.9990 
6.500E+01 1.095E+01 4.793E-03 1.095E+01 3.287E+00 3.283E+00 0.9990 
7.000E+01 1.033E+01 4.466E-03 1.034E+01 3.757E+00 3.753E+00 0.9990 
7.500E+01 9.792E+00 4.182E-03 9.796E+00 4.254E+00 4.250E+00 0.9990 
8.000E+01 9.315E+00 3.933E-03 9.319E+00 4.777E+00 4.773E+00 0.9990 
8.500E+01 8.891E+00 3.712E-03 8.895E+00 5.327E+00 5.322E+00 0.9991 
9.000E+01 8.512E+00 3.515E-03 8.516E+00 5.901E+00 5.896E+00 0.9991 
9.500E+01 8.171E+00 3.339E-03 8.174E+00 6.501E+00 6.495E+00 0.9991 
1.000E+02 7.862E+00 3.180E-03 7.865E+00 7.125E+00 7.118E+00 0.9991 
1.250E+02 6.670E+00 2.571E-03 6.673E+00 1.059E+01 1.058E+01 0.9991 
1.500E+02 5.860E+00 2.161E-03 5.862E+00 1.460E+01 1.459E+01 0.9991 
1.750E+02 5.273E+00 1.865E-03 5.275E+00 1.911E+01 1.909E+01 0.9992 
2.000E+02 4.828E+00 1.643E-03 4.830E+00 2.407E+01 2.405E+01 0.9992 
2.250E+02 4.480E+00 1.468E-03 4.481E+00 2.945E+01 2.942E+01 0.9992 
2.500E+02 4.199E+00 1.328E-03 4.201E+00 3.521E+01 3.519E+01 0.9992 
2.750E+02 3.969E+00 1.213E-03 3.971E+00 4.134E+01 4.131E+01 0.9992 
3.000E+02 3.777E+00 1.116E-03 3.778E+00 4.780E+01 4.776E+01 0.9992 
3.500E+02 3.475E+00 9.640E-04 3.476E+00 6.162E+01 6.158E+01 0.9993 
4.000E+02 3.250E+00 8.490E-04 3.251E+00 7.651E+01 7.646E+01 0.9993 
4.500E+02 3.076E+00 7.590E-04 3.076E+00 9.234E+01 9.228E+01 0.9993 
5.000E+02 2.938E+00 6.867E-04 2.938E+00 1.090E+02 1.089E+02 0.9993 
5.500E+02 2.826E+00 6.272E-04 2.827E+00 1.263E+02 1.263E+02 0.9993 
6.000E+02 2.735E+00 5.775E-04 2.735E+00 1.443E+02 1.442E+02 0.9994 
6.500E+02 2.658E+00 5.352E-04 2.659E+00 1.629E+02 1.628E+02 0.9994 
7.000E+02 2.594E+00 4.989E-04 2.595E+00 1.819E+02 1.818E+02 0.9994 
7.500E+02 2.540E+00 4.673E-04 2.541E+00 2.014E+02 2.013E+02 0.9994 
8.000E+02 2.494E+00 4.395E-04 2.494E+00 2.213E+02 2.211E+02 0.9994 
8.500E+02 2.454E+00 4.150E-04 2.454E+00 2.415E+02 2.413E+02 0.9994 
9.000E+02 2.419E+00 3.931E-04 2.419E+00 2.620E+02 2.619E+02 0.9994 
9.500E+02 2.389E+00 3.735E-04 2.389E+00 2.828E+02 2.827E+02 0.9994 
1.000E+03 2.362E+00 3.558E-04 2.363E+00 3.039E+02 3.037E+02 0.9995 
1.500E+03 2.222E+00 2.425E-04 2.222E+00 5.234E+02 5.232E+02 0.9995 
2.000E+03 2.182E+00 1.848E-04 2.182E+00 7.509E+02 7.506E+02 0.9996 
2.500E+03 2.177E+00 1.498E-04 2.177E+00 9.806E+02 9.802E+02 0.9996 
3.000E+03 2.186E+00 1.262E-04 2.187E+00 1.210E+03 1.209E+03 0.9997 
4.000E+03 2.222E+00 9.631E-05 2.222E+00 1.664E+03 1.663E+03 0.9997 
5.000E+03 2.263E+00 7.812E-05 2.263E+00 2.110E+03 2.109E+03 0.9997 
6.000E+03 2.303E+00 6.584E-05 2.303E+00 2.548E+03 2.547E+03 0.9998 
7.000E+03 2.340E+00 5.699E-05 2.340E+00 2.978E+03 2.978E+03 0.9998 
8.000E+03 2.375E+00 5.028E-05 2.375E+00 3.403E+03 3.402E+03 0.9998 
9.000E+03 2.408E+00 4.503E-05 2.408E+00 3.821E+03 3.820E+03 0.9998 
1.000E+04 2.438E+00 4.080E-05 2.438E+00 4.233E+03 4.233E+03 0.9998 
