// Stopping powers form https://physics.nist.gov/PhysRefData/Star/Text/PSTAR.html
// SP: MeV cm2 / g
// Range: g/cm2
// Kinetic Energy / SP Electronic / SP Nuclear / SP  Total / Range CSDA / Range Projected / Range Detour Factor = Projected / CSDA 
1.000E-03 1.522E+02 4.315E+01 1.954E+02 5.871E-06 2.755E-06 0.4692 
1.500E-03 1.865E+02 3.460E+01 2.211E+02 8.258E-06 4.174E-06 0.5054 
2.000E-03 2.153E+02 2.927E+01 2.446E+02 1.041E-05 5.568E-06 0.5350 
2.500E-03 2.407E+02 2.557E+01 2.663E+02 1.237E-05 6.918E-06 0.5595 
3.000E-03 2.637E+02 2.281E+01 2.865E+02 1.417E-05 8.225E-06 0.5803 
4.000E-03 3.045E+02 1.894E+01 3.234E+02 1.745E-05 1.072E-05 0.6139 
5.000E-03 3.404E+02 1.631E+01 3.567E+02 2.039E-05 1.306E-05 0.6404 
6.000E-03 3.729E+02 1.439E+01 3.873E+02 2.308E-05 1.528E-05 0.6619 
7.000E-03 4.028E+02 1.292E+01 4.157E+02 2.557E-05 1.738E-05 0.6798 
8.000E-03 4.306E+02 1.175E+01 4.424E+02 2.790E-05 1.940E-05 0.6951 
9.000E-03 4.567E+02 1.080E+01 4.675E+02 3.010E-05 2.132E-05 0.7084 
1.000E-02 4.814E+02 1.000E+01 4.914E+02 3.219E-05 2.318E-05 0.7201 
1.250E-02 5.305E+02 8.485E+00 5.390E+02 3.703E-05 2.756E-05 0.7441 
1.500E-02 5.732E+02 7.400E+00 5.806E+02 4.150E-05 3.167E-05 0.7630 
1.750E-02 6.113E+02 6.581E+00 6.178E+02 4.567E-05 3.555E-05 0.7785 
2.000E-02 6.454E+02 5.939E+00 6.514E+02 4.961E-05 3.926E-05 0.7914 
2.250E-02 6.764E+02 5.421E+00 6.818E+02 5.336E-05 4.281E-05 0.8024 
2.500E-02 7.044E+02 4.993E+00 7.094E+02 5.695E-05 4.624E-05 0.8119 
2.750E-02 7.300E+02 4.633E+00 7.346E+02 6.041E-05 4.955E-05 0.8203 
3.000E-02 7.533E+02 4.325E+00 7.576E+02 6.376E-05 5.278E-05 0.8277 
3.500E-02 7.938E+02 3.826E+00 7.977E+02 7.019E-05 5.899E-05 0.8404 
4.000E-02 8.274E+02 3.437E+00 8.309E+02 7.633E-05 6.494E-05 0.8509 
4.500E-02 8.550E+02 3.126E+00 8.581E+02 8.225E-05 7.071E-05 0.8598 
5.000E-02 8.772E+02 2.870E+00 8.801E+02 8.800E-05 7.633E-05 0.8675 
5.500E-02 8.948E+02 2.655E+00 8.974E+02 9.362E-05 8.184E-05 0.8742 
6.000E-02 9.082E+02 2.473E+00 9.107E+02 9.915E-05 8.727E-05 0.8802 
6.500E-02 9.181E+02 2.316E+00 9.204E+02 1.046E-04 9.264E-05 0.8856 
7.000E-02 9.247E+02 2.178E+00 9.269E+02 1.100E-04 9.796E-05 0.8904 
7.500E-02 9.285E+02 2.058E+00 9.306E+02 1.154E-04 1.033E-04 0.8949 
8.000E-02 9.299E+02 1.951E+00 9.318E+02 1.208E-04 1.086E-04 0.8989 
8.500E-02 9.291E+02 1.855E+00 9.310E+02 1.261E-04 1.139E-04 0.9027 
9.000E-02 9.265E+02 1.769E+00 9.283E+02 1.315E-04 1.192E-04 0.9062 
9.500E-02 9.223E+02 1.691E+00 9.240E+02 1.369E-04 1.245E-04 0.9094 
1.000E-01 9.169E+02 1.620E+00 9.185E+02 1.423E-04 1.299E-04 0.9125 
1.250E-01 8.763E+02 1.343E+00 8.776E+02 1.701E-04 1.574E-04 0.9253 
1.500E-01 8.259E+02 1.152E+00 8.270E+02 1.995E-04 1.865E-04 0.9351 
1.750E-01 7.753E+02 1.010E+00 7.763E+02 2.307E-04 2.175E-04 0.9430 
2.000E-01 7.285E+02 9.016E-01 7.294E+02 2.639E-04 2.506E-04 0.9494 
2.250E-01 6.868E+02 8.152E-01 6.876E+02 2.992E-04 2.857E-04 0.9547 
2.500E-01 6.501E+02 7.447E-01 6.509E+02 3.366E-04 3.229E-04 0.9592 
2.750E-01 6.180E+02 6.855E-01 6.187E+02 3.760E-04 3.621E-04 0.9630 
3.000E-01 5.899E+02 6.351E-01 5.905E+02 4.174E-04 4.033E-04 0.9662 
3.500E-01 5.361E+02 5.545E-01 5.366E+02 5.062E-04 4.918E-04 0.9714 
4.000E-01 4.892E+02 4.928E-01 4.896E+02 6.039E-04 5.891E-04 0.9754 
4.500E-01 4.508E+02 4.439E-01 4.513E+02 7.104E-04 6.952E-04 0.9786 
5.000E-01 4.202E+02 4.043E-01 4.206E+02 8.253E-04 8.097E-04 0.9811 
5.500E-01 3.955E+02 3.715E-01 3.959E+02 9.479E-04 9.319E-04 0.9831 
6.000E-01 3.738E+02 3.438E-01 3.742E+02 1.078E-03 1.061E-03 0.9848 
6.500E-01 3.546E+02 3.201E-01 3.549E+02 1.215E-03 1.198E-03 0.9861 
7.000E-01 3.375E+02 2.996E-01 3.378E+02 1.360E-03 1.342E-03 0.9873 
7.500E-01 3.222E+02 2.817E-01 3.225E+02 1.511E-03 1.493E-03 0.9883 
8.000E-01 3.083E+02 2.658E-01 3.086E+02 1.670E-03 1.651E-03 0.9891 
8.500E-01 2.958E+02 2.516E-01 2.961E+02 1.835E-03 1.817E-03 0.9898 
9.000E-01 2.844E+02 2.390E-01 2.846E+02 2.007E-03 1.988E-03 0.9905 
9.500E-01 2.739E+02 2.276E-01 2.742E+02 2.186E-03 2.167E-03 0.9910 
1.000E+00 2.643E+02 2.173E-01 2.645E+02 2.372E-03 2.352E-03 0.9915 
1.250E+00 2.257E+02 1.775E-01 2.259E+02 3.399E-03 3.376E-03 0.9933 
1.500E+00 1.980E+02 1.504E-01 1.982E+02 4.583E-03 4.558E-03 0.9944 
1.750E+00 1.769E+02 1.307E-01 1.771E+02 5.920E-03 5.892E-03 0.9951 
2.000E+00 1.604E+02 1.157E-01 1.605E+02 7.406E-03 7.373E-03 0.9957 
2.250E+00 1.469E+02 1.038E-01 1.470E+02 9.035E-03 8.999E-03 0.9960 
2.500E+00 1.358E+02 9.428E-02 1.359E+02 1.081E-02 1.077E-02 0.9963 
2.750E+00 1.264E+02 8.637E-02 1.265E+02 1.271E-02 1.267E-02 0.9966 
3.000E+00 1.183E+02 7.972E-02 1.184E+02 1.476E-02 1.471E-02 0.9968 
3.500E+00 1.052E+02 6.916E-02 1.053E+02 1.925E-02 1.919E-02 0.9970 
4.000E+00 9.491E+01 6.113E-02 9.497E+01 2.425E-02 2.419E-02 0.9972 
4.500E+00 8.663E+01 5.481E-02 8.669E+01 2.977E-02 2.969E-02 0.9974 
5.000E+00 7.980E+01 4.970E-02 7.985E+01 3.579E-02 3.570E-02 0.9975 
5.500E+00 7.407E+01 4.549E-02 7.411E+01 4.229E-02 4.219E-02 0.9976 
6.000E+00 6.916E+01 4.195E-02 6.921E+01 4.928E-02 4.916E-02 0.9977 
6.500E+00 6.492E+01 3.894E-02 6.496E+01 5.674E-02 5.661E-02 0.9977 
7.000E+00 6.121E+01 3.634E-02 6.125E+01 6.467E-02 6.453E-02 0.9978 
7.500E+00 5.794E+01 3.407E-02 5.797E+01 7.306E-02 7.291E-02 0.9978 
8.000E+00 5.503E+01 3.208E-02 5.507E+01 8.192E-02 8.174E-02 0.9979 
8.500E+00 5.243E+01 3.031E-02 5.246E+01 9.122E-02 9.103E-02 0.9979 
9.000E+00 5.008E+01 2.873E-02 5.011E+01 1.010E-01 1.008E-01 0.9980 
9.500E+00 4.795E+01 2.731E-02 4.798E+01 1.112E-01 1.110E-01 0.9980 
1.000E+01 4.602E+01 2.603E-02 4.604E+01 1.218E-01 1.216E-01 0.9980 
1.250E+01 3.843E+01 2.111E-02 3.846E+01 1.815E-01 1.812E-01 0.9981 
1.500E+01 3.315E+01 1.778E-02 3.317E+01 2.517E-01 2.513E-01 0.9982 
1.750E+01 2.925E+01 1.538E-02 2.927E+01 3.321E-01 3.315E-01 0.9982 
2.000E+01 2.624E+01 1.356E-02 2.626E+01 4.225E-01 4.217E-01 0.9983 
2.500E+01 2.189E+01 1.098E-02 2.190E+01 6.320E-01 6.309E-01 0.9984 
2.750E+01 2.026E+01 1.003E-02 2.027E+01 7.507E-01 7.495E-01 0.9984 
3.000E+01 1.888E+01 9.239E-03 1.889E+01 8.786E-01 8.772E-01 0.9984 
3.500E+01 1.667E+01 7.983E-03 1.668E+01 1.161E+00 1.159E+00 0.9984 
4.000E+01 1.497E+01 7.034E-03 1.498E+01 1.478E+00 1.476E+00 0.9985 
4.500E+01 1.362E+01 6.290E-03 1.363E+01 1.828E+00 1.826E+00 0.9985 
5.000E+01 1.252E+01 5.691E-03 1.253E+01 2.211E+00 2.208E+00 0.9985 
5.500E+01 1.161E+01 5.199E-03 1.162E+01 2.626E+00 2.622E+00 0.9985 
6.000E+01 1.084E+01 4.786E-03 1.085E+01 3.072E+00 3.068E+00 0.9986 
6.500E+01 1.018E+01 4.435E-03 1.019E+01 3.548E+00 3.543E+00 0.9986 
7.000E+01 9.614E+00 4.134E-03 9.618E+00 4.053E+00 4.048E+00 0.9986 
7.500E+01 9.115E+00 3.871E-03 9.119E+00 4.587E+00 4.581E+00 0.9986 
8.000E+01 8.674E+00 3.641E-03 8.678E+00 5.150E+00 5.143E+00 0.9986 
8.500E+01 8.282E+00 3.437E-03 8.286E+00 5.740E+00 5.732E+00 0.9986 
9.000E+01 7.932E+00 3.255E-03 7.935E+00 6.356E+00 6.348E+00 0.9986 
9.500E+01 7.615E+00 3.092E-03 7.619E+00 7.000E+00 6.990E+00 0.9987 
1.000E+02 7.329E+00 2.944E-03 7.332E+00 7.669E+00 7.659E+00 0.9987 
1.250E+02 6.225E+00 2.381E-03 6.228E+00 1.139E+01 1.137E+01 0.9987 
1.500E+02 5.474E+00 2.001E-03 5.476E+00 1.568E+01 1.566E+01 0.9988 
1.750E+02 4.929E+00 1.728E-03 4.930E+00 2.050E+01 2.048E+01 0.9988 
2.000E+02 4.515E+00 1.522E-03 4.517E+00 2.581E+01 2.578E+01 0.9988 
2.250E+02 4.191E+00 1.361E-03 4.193E+00 3.156E+01 3.152E+01 0.9988 
2.500E+02 3.931E+00 1.231E-03 3.932E+00 3.772E+01 3.768E+01 0.9989 
2.750E+02 3.717E+00 1.124E-03 3.718E+00 4.427E+01 4.422E+01 0.9989 
3.000E+02 3.538E+00 1.035E-03 3.539E+00 5.116E+01 5.111E+01 0.9989 
3.500E+02 3.257E+00 8.936E-04 3.258E+00 6.592E+01 6.585E+01 0.9989 
4.000E+02 3.047E+00 7.870E-04 3.048E+00 8.180E+01 8.172E+01 0.9990 
4.500E+02 2.885E+00 7.037E-04 2.886E+00 9.868E+01 9.858E+01 0.9990 
5.000E+02 2.756E+00 6.367E-04 2.757E+00 1.164E+02 1.163E+02 0.9990 
5.500E+02 2.653E+00 5.816E-04 2.653E+00 1.349E+02 1.348E+02 0.9991 
6.000E+02 2.568E+00 5.355E-04 2.568E+00 1.541E+02 1.539E+02 0.9991 
6.500E+02 2.497E+00 4.963E-04 2.497E+00 1.738E+02 1.737E+02 0.9991 
7.000E+02 2.437E+00 4.626E-04 2.438E+00 1.941E+02 1.939E+02 0.9991 
7.500E+02 2.387E+00 4.333E-04 2.387E+00 2.148E+02 2.146E+02 0.9991 
8.000E+02 2.344E+00 4.076E-04 2.344E+00 2.360E+02 2.358E+02 0.9992 
8.500E+02 2.307E+00 3.849E-04 2.307E+00 2.575E+02 2.573E+02 0.9992 
9.000E+02 2.275E+00 3.646E-04 2.275E+00 2.793E+02 2.791E+02 0.9992 
9.500E+02 2.247E+00 3.464E-04 2.247E+00 3.014E+02 3.012E+02 0.9992 
1.000E+03 2.222E+00 3.300E-04 2.223E+00 3.238E+02 3.236E+02 0.9992 
1.500E+03 2.093E+00 2.249E-04 2.093E+00 5.570E+02 5.566E+02 0.9993 
2.000E+03 2.058E+00 1.715E-04 2.058E+00 7.984E+02 7.979E+02 0.9994 
2.500E+03 2.055E+00 1.390E-04 2.055E+00 1.042E+03 1.041E+03 0.9995 
3.000E+03 2.066E+00 1.171E-04 2.066E+00 1.284E+03 1.284E+03 0.9995 
4.000E+03 2.101E+00 8.939E-05 2.101E+00 1.765E+03 1.764E+03 0.9996 
5.000E+03 2.142E+00 7.251E-05 2.142E+00 2.236E+03 2.235E+03 0.9996 
6.000E+03 2.181E+00 6.112E-05 2.181E+00 2.699E+03 2.698E+03 0.9997 
7.000E+03 2.218E+00 5.291E-05 2.218E+00 3.153E+03 3.152E+03 0.9997 
8.000E+03 2.252E+00 4.669E-05 2.252E+00 3.601E+03 3.599E+03 0.9997 
9.000E+03 2.284E+00 4.181E-05 2.284E+00 4.041E+03 4.040E+03 0.9997 
1.000E+04 2.313E+00 3.788E-05 2.313E+00 4.476E+03 4.475E+03 0.9998 
