// Stopping powers form https://physics.nist.gov/PhysRefData/Star/Text/PSTAR.html
// SP: MeV cm2 / g
// Range: g/cm2
// Kinetic Energy / SP Electronic / SP Nuclear / SP  Total / Range CSDA / Range Projected / Range Detour Factor = Projected / CSDA 
1.000E-03 1.768E+02 4.471E+01 2.215E+02 5.313E-06 2.617E-06 0.4926 
1.500E-03 2.166E+02 3.577E+01 2.523E+02 7.411E-06 3.949E-06 0.5328 
2.000E-03 2.501E+02 3.020E+01 2.803E+02 9.290E-06 5.244E-06 0.5644 
2.500E-03 2.796E+02 2.633E+01 3.059E+02 1.100E-05 6.489E-06 0.5901 
3.000E-03 3.063E+02 2.345E+01 3.297E+02 1.257E-05 7.685E-06 0.6114 
4.000E-03 3.511E+02 1.941E+01 3.705E+02 1.543E-05 9.958E-06 0.6455 
5.000E-03 3.909E+02 1.668E+01 4.075E+02 1.800E-05 1.209E-05 0.6719 
6.000E-03 4.268E+02 1.469E+01 4.415E+02 2.035E-05 1.410E-05 0.6930 
7.000E-03 4.598E+02 1.317E+01 4.729E+02 2.254E-05 1.601E-05 0.7105 
8.000E-03 4.899E+02 1.196E+01 5.018E+02 2.459E-05 1.783E-05 0.7253 
9.000E-03 5.178E+02 1.097E+01 5.288E+02 2.653E-05 1.958E-05 0.7380 
1.000E-02 5.440E+02 1.015E+01 5.542E+02 2.838E-05 2.126E-05 0.7491 
1.250E-02 5.964E+02 8.594E+00 6.050E+02 3.269E-05 2.523E-05 0.7719 
1.500E-02 6.413E+02 7.482E+00 6.488E+02 3.667E-05 2.896E-05 0.7897 
1.750E-02 6.806E+02 6.645E+00 6.873E+02 4.041E-05 3.250E-05 0.8042 
2.000E-02 7.157E+02 5.991E+00 7.217E+02 4.396E-05 3.588E-05 0.8162 
2.250E-02 7.470E+02 5.463E+00 7.525E+02 4.735E-05 3.913E-05 0.8263 
2.500E-02 7.750E+02 5.027E+00 7.800E+02 5.061E-05 4.227E-05 0.8351 
2.750E-02 8.000E+02 4.661E+00 8.047E+02 5.377E-05 4.532E-05 0.8429 
3.000E-02 8.226E+02 4.349E+00 8.269E+02 5.683E-05 4.829E-05 0.8497 
3.500E-02 8.617E+02 3.843E+00 8.655E+02 6.274E-05 5.404E-05 0.8613 
4.000E-02 8.942E+02 3.450E+00 8.976E+02 6.841E-05 5.958E-05 0.8709 
4.500E-02 9.207E+02 3.135E+00 9.238E+02 7.390E-05 6.495E-05 0.8790 
5.000E-02 9.415E+02 2.877E+00 9.444E+02 7.925E-05 7.021E-05 0.8859 
5.500E-02 9.573E+02 2.660E+00 9.600E+02 8.449E-05 7.537E-05 0.8920 
6.000E-02 9.686E+02 2.476E+00 9.711E+02 8.967E-05 8.047E-05 0.8974 
6.500E-02 9.762E+02 2.318E+00 9.785E+02 9.480E-05 8.553E-05 0.9022 
7.000E-02 9.805E+02 2.180E+00 9.827E+02 9.990E-05 9.057E-05 0.9066 
7.500E-02 9.820E+02 2.058E+00 9.840E+02 1.050E-04 9.559E-05 0.9106 
8.000E-02 9.810E+02 1.950E+00 9.830E+02 1.101E-04 1.006E-04 0.9142 
8.500E-02 9.780E+02 1.854E+00 9.799E+02 1.152E-04 1.057E-04 0.9175 
9.000E-02 9.732E+02 1.768E+00 9.750E+02 1.203E-04 1.107E-04 0.9206 
9.500E-02 9.670E+02 1.689E+00 9.686E+02 1.254E-04 1.158E-04 0.9235 
1.000E-01 9.595E+02 1.618E+00 9.611E+02 1.306E-04 1.210E-04 0.9262 
1.250E-01 9.104E+02 1.341E+00 9.117E+02 1.573E-04 1.474E-04 0.9375 
1.500E-01 8.536E+02 1.148E+00 8.548E+02 1.856E-04 1.756E-04 0.9461 
1.750E-01 7.979E+02 1.007E+00 7.989E+02 2.158E-04 2.057E-04 0.9529 
2.000E-01 7.469E+02 8.982E-01 7.478E+02 2.482E-04 2.379E-04 0.9584 
2.250E-01 7.015E+02 8.117E-01 7.023E+02 2.827E-04 2.722E-04 0.9629 
2.500E-01 6.615E+02 7.413E-01 6.622E+02 3.194E-04 3.088E-04 0.9667 
2.750E-01 6.264E+02 6.823E-01 6.271E+02 3.582E-04 3.474E-04 0.9699 
3.000E-01 5.956E+02 6.320E-01 5.962E+02 3.991E-04 3.882E-04 0.9726 
3.500E-01 5.448E+02 5.516E-01 5.454E+02 4.869E-04 4.757E-04 0.9770 
4.000E-01 5.044E+02 4.901E-01 5.049E+02 5.823E-04 5.708E-04 0.9802 
4.500E-01 4.711E+02 4.415E-01 4.715E+02 6.849E-04 6.730E-04 0.9827 
5.000E-01 4.428E+02 4.020E-01 4.432E+02 7.943E-04 7.822E-04 0.9847 
5.500E-01 4.164E+02 3.693E-01 4.168E+02 9.106E-04 8.982E-04 0.9863 
6.000E-01 3.920E+02 3.416E-01 3.924E+02 1.034E-03 1.022E-03 0.9877 
6.500E-01 3.699E+02 3.179E-01 3.702E+02 1.166E-03 1.152E-03 0.9888 
7.000E-01 3.500E+02 2.974E-01 3.503E+02 1.304E-03 1.291E-03 0.9897 
7.500E-01 3.322E+02 2.794E-01 3.325E+02 1.451E-03 1.437E-03 0.9905 
8.000E-01 3.164E+02 2.636E-01 3.166E+02 1.605E-03 1.591E-03 0.9912 
8.500E-01 3.022E+02 2.495E-01 3.024E+02 1.767E-03 1.752E-03 0.9918 
9.000E-01 2.895E+02 2.369E-01 2.897E+02 1.936E-03 1.921E-03 0.9923 
9.500E-01 2.781E+02 2.256E-01 2.783E+02 2.112E-03 2.097E-03 0.9928 
1.000E+00 2.679E+02 2.154E-01 2.681E+02 2.295E-03 2.279E-03 0.9932 
1.250E+00 2.289E+02 1.758E-01 2.290E+02 3.308E-03 3.290E-03 0.9946 
1.500E+00 2.008E+02 1.488E-01 2.009E+02 4.476E-03 4.456E-03 0.9955 
1.750E+00 1.795E+02 1.292E-01 1.796E+02 5.795E-03 5.772E-03 0.9961 
2.000E+00 1.626E+02 1.143E-01 1.627E+02 7.259E-03 7.234E-03 0.9965 
2.250E+00 1.490E+02 1.026E-01 1.491E+02 8.866E-03 8.837E-03 0.9968 
2.500E+00 1.376E+02 9.308E-02 1.377E+02 1.061E-02 1.058E-02 0.9970 
2.750E+00 1.281E+02 8.523E-02 1.282E+02 1.250E-02 1.246E-02 0.9972 
3.000E+00 1.199E+02 7.864E-02 1.200E+02 1.451E-02 1.447E-02 0.9974 
3.500E+00 1.065E+02 6.817E-02 1.066E+02 1.894E-02 1.890E-02 0.9976 
4.000E+00 9.604E+01 6.022E-02 9.610E+01 2.389E-02 2.384E-02 0.9977 
4.500E+00 8.761E+01 5.397E-02 8.766E+01 2.935E-02 2.928E-02 0.9979 
5.000E+00 8.065E+01 4.892E-02 8.070E+01 3.530E-02 3.522E-02 0.9980 
5.500E+00 7.480E+01 4.475E-02 7.485E+01 4.173E-02 4.165E-02 0.9980 
6.000E+00 6.982E+01 4.126E-02 6.986E+01 4.865E-02 4.856E-02 0.9981 
6.500E+00 6.551E+01 3.828E-02 6.555E+01 5.605E-02 5.594E-02 0.9982 
7.000E+00 6.175E+01 3.571E-02 6.178E+01 6.391E-02 6.379E-02 0.9982 
7.500E+00 5.843E+01 3.348E-02 5.846E+01 7.223E-02 7.210E-02 0.9982 
8.000E+00 5.548E+01 3.151E-02 5.551E+01 8.101E-02 8.087E-02 0.9983 
8.500E+00 5.284E+01 2.977E-02 5.287E+01 9.024E-02 9.009E-02 0.9983 
9.000E+00 5.047E+01 2.821E-02 5.049E+01 9.992E-02 9.976E-02 0.9983 
9.500E+00 4.831E+01 2.681E-02 4.834E+01 1.100E-01 1.099E-01 0.9984 
1.000E+01 4.635E+01 2.555E-02 4.637E+01 1.206E-01 1.204E-01 0.9984 
1.250E+01 3.868E+01 2.071E-02 3.870E+01 1.799E-01 1.796E-01 0.9985 
1.500E+01 3.334E+01 1.743E-02 3.336E+01 2.497E-01 2.493E-01 0.9985 
1.750E+01 2.940E+01 1.507E-02 2.942E+01 3.297E-01 3.292E-01 0.9986 
2.000E+01 2.637E+01 1.328E-02 2.638E+01 4.196E-01 4.190E-01 0.9986 
2.500E+01 2.198E+01 1.075E-02 2.199E+01 6.282E-01 6.274E-01 0.9986 
2.750E+01 2.033E+01 9.823E-03 2.034E+01 7.465E-01 7.455E-01 0.9987 
3.000E+01 1.895E+01 9.045E-03 1.895E+01 8.739E-01 8.728E-01 0.9987 
3.500E+01 1.672E+01 7.814E-03 1.673E+01 1.155E+00 1.154E+00 0.9987 
4.000E+01 1.501E+01 6.883E-03 1.502E+01 1.471E+00 1.470E+00 0.9987 
4.500E+01 1.365E+01 6.155E-03 1.366E+01 1.821E+00 1.819E+00 0.9988 
5.000E+01 1.255E+01 5.568E-03 1.256E+01 2.203E+00 2.200E+00 0.9988 
5.500E+01 1.164E+01 5.086E-03 1.164E+01 2.617E+00 2.614E+00 0.9988 
6.000E+01 1.086E+01 4.682E-03 1.087E+01 3.062E+00 3.058E+00 0.9988 
6.500E+01 1.020E+01 4.338E-03 1.021E+01 3.537E+00 3.533E+00 0.9988 
7.000E+01 9.630E+00 4.043E-03 9.634E+00 4.041E+00 4.037E+00 0.9988 
7.500E+01 9.129E+00 3.786E-03 9.133E+00 4.575E+00 4.569E+00 0.9989 
8.000E+01 8.687E+00 3.560E-03 8.691E+00 5.136E+00 5.130E+00 0.9989 
8.500E+01 8.294E+00 3.361E-03 8.297E+00 5.725E+00 5.719E+00 0.9989 
9.000E+01 7.942E+00 3.183E-03 7.945E+00 6.341E+00 6.334E+00 0.9989 
9.500E+01 7.625E+00 3.023E-03 7.628E+00 6.983E+00 6.976E+00 0.9989 
1.000E+02 7.338E+00 2.879E-03 7.341E+00 7.652E+00 7.643E+00 0.9989 
1.250E+02 6.230E+00 2.328E-03 6.233E+00 1.137E+01 1.135E+01 0.9989 
1.500E+02 5.477E+00 1.957E-03 5.479E+00 1.566E+01 1.564E+01 0.9990 
1.750E+02 4.931E+00 1.690E-03 4.932E+00 2.048E+01 2.046E+01 0.9990 
2.000E+02 4.516E+00 1.488E-03 4.518E+00 2.578E+01 2.575E+01 0.9990 
2.250E+02 4.192E+00 1.330E-03 4.193E+00 3.153E+01 3.150E+01 0.9990 
2.500E+02 3.931E+00 1.203E-03 3.932E+00 3.769E+01 3.766E+01 0.9991 
2.750E+02 3.716E+00 1.099E-03 3.717E+00 4.424E+01 4.420E+01 0.9991 
3.000E+02 3.537E+00 1.011E-03 3.538E+00 5.114E+01 5.109E+01 0.9991 
3.500E+02 3.256E+00 8.733E-04 3.257E+00 6.589E+01 6.584E+01 0.9991 
4.000E+02 3.045E+00 7.692E-04 3.046E+00 8.179E+01 8.172E+01 0.9992 
4.500E+02 2.883E+00 6.877E-04 2.884E+00 9.868E+01 9.859E+01 0.9992 
5.000E+02 2.754E+00 6.222E-04 2.755E+00 1.164E+02 1.163E+02 0.9992 
5.500E+02 2.651E+00 5.683E-04 2.651E+00 1.349E+02 1.348E+02 0.9992 
6.000E+02 2.565E+00 5.233E-04 2.566E+00 1.541E+02 1.540E+02 0.9992 
6.500E+02 2.494E+00 4.850E-04 2.495E+00 1.739E+02 1.738E+02 0.9993 
7.000E+02 2.432E+00 4.521E-04 2.433E+00 1.942E+02 1.941E+02 0.9993 
7.500E+02 2.380E+00 4.234E-04 2.380E+00 2.150E+02 2.148E+02 0.9993 
8.000E+02 2.335E+00 3.983E-04 2.335E+00 2.362E+02 2.360E+02 0.9993 
8.500E+02 2.295E+00 3.761E-04 2.296E+00 2.578E+02 2.576E+02 0.9993 
9.000E+02 2.261E+00 3.562E-04 2.261E+00 2.797E+02 2.795E+02 0.9993 
9.500E+02 2.231E+00 3.385E-04 2.231E+00 3.020E+02 3.018E+02 0.9993 
1.000E+03 2.205E+00 3.224E-04 2.205E+00 3.245E+02 3.243E+02 0.9994 
1.500E+03 2.056E+00 2.198E-04 2.056E+00 5.608E+02 5.605E+02 0.9994 
2.000E+03 2.003E+00 1.676E-04 2.003E+00 8.077E+02 8.073E+02 0.9995 
2.500E+03 1.984E+00 1.358E-04 1.984E+00 1.059E+03 1.058E+03 0.9996 
3.000E+03 1.980E+00 1.144E-04 1.980E+00 1.311E+03 1.310E+03 0.9996 
4.000E+03 1.991E+00 8.733E-05 1.991E+00 1.815E+03 1.814E+03 0.9997 
5.000E+03 2.010E+00 7.083E-05 2.010E+00 2.315E+03 2.314E+03 0.9997 
6.000E+03 2.031E+00 5.971E-05 2.031E+00 2.810E+03 2.809E+03 0.9997 
7.000E+03 2.051E+00 5.168E-05 2.051E+00 3.300E+03 3.299E+03 0.9997 
8.000E+03 2.071E+00 4.560E-05 2.071E+00 3.785E+03 3.784E+03 0.9998 
9.000E+03 2.089E+00 4.084E-05 2.089E+00 4.266E+03 4.265E+03 0.9998 
1.000E+04 2.106E+00 3.700E-05 2.106E+00 4.743E+03 4.742E+03 0.9998 
