//Ambient and personal dose equivalent per unit neutron fluence, H^*(10)/F and H_pslab(10,alpha)/F, in units of pSv cm2 for monoenergetic neutrons incident in various geometries on the ICRU sphere and slab (See Figs. 21 and 31/33)
//Same as ICRP report 74 TABLE A.42
//Energy(MeV) H_pslab(10,15)/F 
1.00e-9 7.64
1.00e-8 9.35
2.53e-8 10.6
1.00e-7 11.7
2.00e-7 12.6
5.00e-7 13.5
1.00e-6 13.9
2.00e-6 14.0
5.00e-6 13.9
1.00e-5 13.4
2.00e-5 12.6
5.00e-5 11.2
1.00e-4 9.85
2.00e-4 9.41
5.00e-4 8.66
1.00e-3 8.20
2.00e-3 8.22
5.00e-3 8.79
1.00e-2 10.8
2.00e-2 17.0
3.00e-2 24.1
5.00e-2 36.0
7.00e-2 55.8
1.00e-1 87.8
1.50e-1 137
2.00e-1 179
3.00e-1 244
5.00e-1 330
7.00e-1 379
9.00e-1 407
1.00e+0 416
1.20e+0 427
2.00e+0 438
3.00e+0 429
4.00e+0 421
5.00e+0 418
6.00e+0 422
7.00e+0 432
8.00e+0 445
9.00e+0 462
1.00e+1 481
1.20e+1 519
1.40e+1 552
1.50e+1 565
1.60e+1 577
1.80e+1 593
2.00e+1 595
3.00e+1 0.
5.00e+1 0.
7.50e+1 0.
1.00e+2 0.
1.25e+2 0.
1.50e+2 0.
1.75e+2 0.
2.01e+2 0.
